z2,<dsig|c12>_U,err_<dsig|c12>_U,<ALL|c12>_U,err_<ALL|c12>_U,<dsig|c12>_L,err_<dsig|c12>_L,<ALL|c12>_L,err_<ALL|c12>_L,BU_o_AU,err_BU_o_AU,BL_o_AU,err_BL_o_AU,Collins_U,Collins_L,time[s],neval,fail
0.1,0.0460141,7.39957e-05,0.00059852,7.45594e-07,-0.0104148,1.67481e-05,-0.000135468,1.68757e-07,0.156986,0.000252451,0.00204197,2.54375e-06,0.293109,-0.0663418,50.8534,10000000,0
0.15,0.0456323,7.33819e-05,0.000593542,7.394e-07,-0.0111941,1.80014e-05,-0.000145602,1.81383e-07,0.156986,0.000252452,0.00204193,2.54372e-06,0.290677,-0.0713062,52.0329,10000000,0
0.2,0.0459767,7.39358e-05,0.000598013,7.44974e-07,-0.0129477,2.08214e-05,-0.000168409,2.09795e-07,0.156986,0.000252452,0.0020419,2.5437e-06,0.292871,-0.0824766,51.6679,10000000,0
0.25,0.0469888,7.55635e-05,0.000611172,7.6137e-07,-0.0154678,2.48741e-05,-0.000201186,2.50629e-07,0.156986,0.000252452,0.00204188,2.54368e-06,0.299318,-0.0985298,51.2509,10000000,0
0.3,0.0482921,7.76593e-05,0.00062812,7.82486e-07,-0.0183891,2.95717e-05,-0.000239181,2.97961e-07,0.156986,0.000252452,0.00204187,2.54368e-06,0.30762,-0.117138,51.7739,10000000,0
0.35,0.0495717,7.97172e-05,0.000644761,8.03218e-07,-0.0214275,3.44579e-05,-0.000278699,3.47192e-07,0.156986,0.000252452,0.00204186,2.54367e-06,0.315771,-0.136493,51.1276,10000000,0
0.4,0.0506878,8.1512e-05,0.000659275,8.21301e-07,-0.0244514,3.93207e-05,-0.000318029,3.96188e-07,0.156986,0.000252452,0.00204185,2.54366e-06,0.322881,-0.155755,51.0939,10000000,0
0.45,0.0516573,8.30712e-05,0.000671884,8.37008e-07,-0.0274557,4.4152e-05,-0.000357104,4.44867e-07,0.156986,0.000252452,0.00204185,2.54366e-06,0.329057,-0.174893,50.9031,10000000,0
0.5,0.0525758,8.45481e-05,0.000683827,8.51889e-07,-0.0304512,4.89691e-05,-0.000396064,4.93402e-07,0.156986,0.000252452,0.00204184,2.54366e-06,0.334907,-0.193974,51.761,10000000,0
0.55,0.0535284,8.60801e-05,0.000696217,8.67324e-07,-0.0333494,5.36298e-05,-0.000433759,5.40362e-07,0.156986,0.000252453,0.00204184,2.54365e-06,0.340976,-0.212435,51.9381,10000000,0
0.6,0.0545297,8.76903e-05,0.000709238,8.83546e-07,-0.0359185,5.77612e-05,-0.000467172,5.81988e-07,0.156986,0.000252453,0.00204183,2.54365e-06,0.347354,-0.2288,51.1655,10000000,0
0.65,0.0555115,8.92692e-05,0.000722007,8.99454e-07,-0.0378498,6.0867e-05,-0.00049229,6.1328e-07,0.156986,0.000252453,0.00204183,2.54365e-06,0.353608,-0.241103,51.0823,10000000,0
0.7,0.0563958,9.06913e-05,0.000733507,9.13782e-07,-0.0388082,6.24083e-05,-0.000504755,6.28809e-07,0.156986,0.000252453,0.00204183,2.54365e-06,0.359241,-0.247208,51.7644,10000000,0
0.75,0.0571078,9.18362e-05,0.000742766,9.25316e-07,-0.0385815,6.20437e-05,-0.000501805,6.25135e-07,0.156986,0.000252453,0.00204182,2.54364e-06,0.363776,-0.245763,50.8653,10000000,0
0.8,0.0576126,9.2648e-05,0.000749329,9.33495e-07,-0.037176,5.97835e-05,-0.000483524,6.02361e-07,0.156986,0.000252453,0.00204182,2.54364e-06,0.366991,-0.236811,51.7628,10000000,0
0.1,0.0373776,6.01074e-05,0.000486181,6.05651e-07,-0.0106877,1.71871e-05,-0.000139018,1.7318e-07,0.156986,0.000252451,0.00204196,2.54374e-06,0.238095,-0.0680808,50.607,10000000,0
0.15,0.0371911,5.98076e-05,0.000483744,6.02622e-07,-0.0115751,1.8614e-05,-0.000150557,1.87555e-07,0.156986,0.000252452,0.00204192,2.54371e-06,0.236907,-0.0737329,51.465,10000000,0
0.2,0.0376025,6.04691e-05,0.000489089,6.09283e-07,-0.0133444,2.14593e-05,-0.000173568,2.16222e-07,0.156986,0.000252452,0.00204189,2.54369e-06,0.239527,-0.0850034,51.5371,10000000,0
0.25,0.0385406,6.19777e-05,0.000501286,6.24481e-07,-0.0157864,2.53864e-05,-0.00020533,2.55791e-07,0.156986,0.000252452,0.00204188,2.54368e-06,0.245503,-0.100559,51.1331,10000000,0
0.3,0.0396924,6.383e-05,0.000516265,6.43142e-07,-0.018555,2.98387e-05,-0.000241339,3.0065e-07,0.156986,0.000252452,0.00204187,2.54367e-06,0.25284,-0.118195,51.6997,10000000,0
0.35,0.0408087,6.56252e-05,0.000530783,6.61229e-07,-0.0213883,3.43949e-05,-0.000278189,3.46557e-07,0.156986,0.000252452,0.00204186,2.54367e-06,0.259951,-0.136243,51.5274,10000000,0
0.4,0.041786,6.71969e-05,0.000543492,6.77063e-07,-0.0241688,3.88662e-05,-0.000314352,3.91609e-07,0.156986,0.000252452,0.00204185,2.54366e-06,0.266176,-0.153955,50.7811,10000000,0
0.45,0.0426412,6.85722e-05,0.000554614,6.90919e-07,-0.0268949,4.32503e-05,-0.00034981,4.35781e-07,0.156986,0.000252452,0.00204184,2.54366e-06,0.271624,-0.17132,51.171,10000000,0
0.5,0.0434431,6.98617e-05,0.000565042,7.03911e-07,-0.0295786,4.7566e-05,-0.000384714,4.79264e-07,0.156986,0.000252453,0.00204184,2.54366e-06,0.276732,-0.188415,52.0634,10000000,0
0.55,0.0442425,7.11472e-05,0.000575438,7.16862e-07,-0.0321429,5.16896e-05,-0.000418065,5.20812e-07,0.156986,0.000252453,0.00204183,2.54365e-06,0.281824,-0.20475,52.168,10000000,0
0.6,0.045033,7.24185e-05,0.000585719,7.2967e-07,-0.0343856,5.52962e-05,-0.000447234,5.57151e-07,0.156986,0.000252453,0.00204183,2.54365e-06,0.28686,-0.219036,51.9096,10000000,0
0.65,0.0457546,7.35789e-05,0.000595103,7.41362e-07,-0.0360423,5.79604e-05,-0.000468781,5.83994e-07,0.156986,0.000252453,0.00204183,2.54365e-06,0.291456,-0.229589,51.3313,10000000,0
0.7,0.0463479,7.4533e-05,0.000602818,7.50974e-07,-0.0368305,5.92278e-05,-0.000479031,5.96763e-07,0.156986,0.000252453,0.00204182,2.54365e-06,0.295235,-0.23461,50.8272,10000000,0
0.75,0.046769,7.52103e-05,0.000608295,7.57797e-07,-0.03658,5.8825e-05,-0.000475772,5.92704e-07,0.156986,0.000252453,0.00204182,2.54364e-06,0.297918,-0.233014,51.4462,10000000,0
0.8,0.0470117,7.56005e-05,0.00061145,7.61728e-07,-0.0353128,5.67873e-05,-0.00045929,5.72172e-07,0.156986,0.000252453,0.00204181,2.54364e-06,0.299464,-0.224942,51.5791,10000000,0
0.1,0.0385613,6.20108e-05,0.000501577,6.24831e-07,-0.010723,1.72437e-05,-0.000139476,1.7375e-07,0.156986,0.000252451,0.00204196,2.54374e-06,0.245635,-0.068305,51.2009,10000000,0
0.15,0.038344,6.16616e-05,0.000498741,6.21303e-07,-0.0115635,1.85954e-05,-0.000150407,1.87368e-07,0.156986,0.000252452,0.00204192,2.54371e-06,0.244251,-0.0736594,51.1251,10000000,0
0.2,0.0387488,6.23126e-05,0.000503999,6.27858e-07,-0.0133281,2.14332e-05,-0.000173357,2.15959e-07,0.156986,0.000252452,0.00204189,2.54369e-06,0.246829,-0.0848999,51.0873,10000000,0
0.25,0.0397063,6.38524e-05,0.00051645,6.4337e-07,-0.0158101,2.54245e-05,-0.000205638,2.56174e-07,0.156986,0.000252452,0.00204188,2.54368e-06,0.252929,-0.10071,51.4359,10000000,0
0.3,0.040893,6.57607e-05,0.000531881,6.62596e-07,-0.0186553,2.99999e-05,-0.000242643,3.02274e-07,0.156986,0.000252452,0.00204187,2.54367e-06,0.260488,-0.118834,51.592,10000000,0
0.35,0.0420487,6.76192e-05,0.00054691,6.8132e-07,-0.0215919,3.47223e-05,-0.000280837,3.49856e-07,0.156986,0.000252452,0.00204186,2.54367e-06,0.267849,-0.13754,51.7686,10000000,0
0.4,0.0430641,6.92522e-05,0.000560116,6.97772e-07,-0.024496,3.93924e-05,-0.000318609,3.96911e-07,0.156986,0.000252452,0.00204185,2.54366e-06,0.274318,-0.156039,52.0695,10000000,0
0.45,0.0439561,7.06866e-05,0.000571716,7.12224e-07,-0.027364,4.40045e-05,-0.00035591,4.4338e-07,0.156986,0.000252452,0.00204184,2.54366e-06,0.28,-0.174308,51.0608,10000000,0
0.5,0.044796,7.20373e-05,0.000582638,7.25831e-07,-0.030206,4.85748e-05,-0.000392874,4.89429e-07,0.156986,0.000252453,0.00204184,2.54366e-06,0.28535,-0.192412,51.3263,10000000,0
0.55,0.0456366,7.33891e-05,0.000593571,7.39451e-07,-0.0329376,5.29676e-05,-0.000428401,5.33689e-07,0.156986,0.000252453,0.00204184,2.54365e-06,0.290704,-0.209812,52.1289,10000000,0
0.6,0.0464704,7.473e-05,0.000604414,7.52961e-07,-0.03534,5.6831e-05,-0.000459648,5.72615e-07,0.156986,0.000252453,0.00204183,2.54365e-06,0.296016,-0.225115,51.7922,10000000,0
0.65,0.047233,7.59564e-05,0.000614332,7.65317e-07,-0.0371256,5.97025e-05,-0.000482871,6.01546e-07,0.156986,0.000252453,0.00204183,2.54365e-06,0.300874,-0.23649,51.8715,10000000,0
0.7,0.0478604,7.69652e-05,0.000622491,7.75481e-07,-0.0379851,6.10846e-05,-0.000494049,6.15472e-07,0.156986,0.000252453,0.00204182,2.54365e-06,0.30487,-0.241964,51.191,10000000,0
0.75,0.0483051,7.76804e-05,0.000628274,7.82686e-07,-0.0377279,6.0671e-05,-0.000490702,6.11303e-07,0.156986,0.000252453,0.00204182,2.54364e-06,0.307703,-0.240326,51.1661,10000000,0
0.8,0.0485598,7.80901e-05,0.000631585,7.86812e-07,-0.03637,5.84874e-05,-0.00047304,5.89301e-07,0.156986,0.000252453,0.00204181,2.54364e-06,0.309325,-0.231676,51.2252,10000000,0
0.1,0.0414034,6.65813e-05,0.000538547,6.70884e-07,-0.0103447,1.66355e-05,-0.000134557,1.67622e-07,0.156986,0.000252451,0.00204197,2.54374e-06,0.263739,-0.0658957,51.2674,10000000,0
0.15,0.0410988,6.60916e-05,0.000534574,6.65941e-07,-0.0110831,1.78228e-05,-0.000144158,1.79583e-07,0.156986,0.000252452,0.00204192,2.54371e-06,0.261799,-0.0705989,51.2891,10000000,0
0.2,0.041461,6.6674e-05,0.000539276,6.71804e-07,-0.0127814,2.05539e-05,-0.000166245,2.071e-07,0.156986,0.000252452,0.0020419,2.54369e-06,0.264106,-0.0814171,51.7208,10000000,0
0.25,0.042429,6.82309e-05,0.000551864,6.87487e-07,-0.0152437,2.45137e-05,-0.000198271,2.46997e-07,0.156986,0.000252452,0.00204188,2.54368e-06,0.270272,-0.0971023,51.7296,10000000,0
0.3,0.0436588,7.02085e-05,0.000567856,7.07411e-07,-0.0181151,2.91311e-05,-0.000235617,2.93521e-07,0.156986,0.000252452,0.00204187,2.54367e-06,0.278106,-0.115393,51.5081,10000000,0
0.35,0.0448665,7.21507e-05,0.000583562,7.26978e-07,-0.0211171,3.39588e-05,-0.000274662,3.42164e-07,0.156986,0.000252452,0.00204186,2.54367e-06,0.285799,-0.134516,51.2498,10000000,0
0.4,0.0459289,7.38591e-05,0.000597378,7.44191e-07,-0.0241199,3.87877e-05,-0.000313717,3.90817e-07,0.156986,0.000252452,0.00204185,2.54366e-06,0.292567,-0.153643,50.9768,10000000,0
0.45,0.046862,7.53597e-05,0.000609513,7.5931e-07,-0.0271174,4.3608e-05,-0.000352703,4.39385e-07,0.156986,0.000252452,0.00204185,2.54366e-06,0.298511,-0.172737,51.3518,10000000,0
0.5,0.0477468,7.67826e-05,0.000621019,7.73645e-07,-0.0301178,4.84331e-05,-0.000391728,4.88001e-07,0.156986,0.000252453,0.00204184,2.54366e-06,0.304147,-0.19185,51.5709,10000000,0
0.55,0.0486486,7.82328e-05,0.000632747,7.88255e-07,-0.0330292,5.31149e-05,-0.000429593,5.35173e-07,0.156986,0.000252453,0.00204184,2.54365e-06,0.309891,-0.210395,51.5122,10000000,0
0.6,0.0495667,7.97092e-05,0.000644686,8.0313e-07,-0.0356142,5.72718e-05,-0.000463214,5.77057e-07,0.156986,0.000252453,0.00204183,2.54365e-06,0.315739,-0.226862,51.7613,10000000,0
0.65,0.0504322,8.11011e-05,0.000655943,8.17154e-07,-0.0375579,6.03976e-05,-0.000488494,6.08551e-07,0.156986,0.000252453,0.00204183,2.54365e-06,0.321253,-0.239243,51.8388,10000000,0
0.7,0.0511727,8.22919e-05,0.000665573,8.29151e-07,-0.0385175,6.19408e-05,-0.000500974,6.24099e-07,0.156986,0.000252453,0.00204182,2.54365e-06,0.32597,-0.245356,50.7774,10000000,0
0.75,0.0517279,8.31848e-05,0.000672793,8.38147e-07,-0.0382742,6.15495e-05,-0.000497808,6.20155e-07,0.156986,0.000252453,0.00204182,2.54364e-06,0.329506,-0.243806,51.5783,10000000,0
0.8,0.0520794,8.37501e-05,0.000677363,8.43841e-07,-0.0368312,5.9229e-05,-0.000479038,5.96774e-07,0.156986,0.000252453,0.00204182,2.54364e-06,0.331745,-0.234614,52.19,10000000,0
0.1,0.0370033,5.95054e-05,0.000481312,5.99586e-07,-0.0111807,1.79798e-05,-0.00014543,1.81167e-07,0.156986,0.000252451,0.00204196,2.54374e-06,0.23571,-0.0712209,51.5394,10000000,0
0.15,0.0368669,5.92862e-05,0.000479527,5.97369e-07,-0.0121965,1.96133e-05,-0.000158639,1.97624e-07,0.156986,0.000252452,0.00204192,2.54371e-06,0.234842,-0.0776914,51.4528,10000000,0
0.2,0.0373109,6.00003e-05,0.000485297,6.04559e-07,-0.0140555,2.26029e-05,-0.000182818,2.27745e-07,0.156986,0.000252452,0.00204189,2.54369e-06,0.23767,-0.0895335,51.8193,10000000,0
0.25,0.038258,6.15233e-05,0.000497611,6.19901e-07,-0.0165369,2.65933e-05,-0.000215091,2.67951e-07,0.156986,0.000252452,0.00204188,2.54368e-06,0.243703,-0.10534,52.0304,10000000,0
0.3,0.0394003,6.33603e-05,0.000512466,6.3841e-07,-0.0192946,3.1028e-05,-0.000250958,3.12634e-07,0.156986,0.000252452,0.00204187,2.54367e-06,0.250979,-0.122906,51.2458,10000000,0
0.35,0.0404973,6.51245e-05,0.000526732,6.56183e-07,-0.0220738,3.54972e-05,-0.000287105,3.57664e-07,0.156986,0.000252452,0.00204186,2.54367e-06,0.257967,-0.14061,51.6317,10000000,0
0.4,0.0414513,6.66586e-05,0.000539139,6.71639e-07,-0.0247639,3.98233e-05,-0.000322093,4.01252e-07,0.156986,0.000252452,0.00204185,2.54366e-06,0.264044,-0.157746,51.38,10000000,0
0.45,0.0422806,6.79922e-05,0.000549924,6.85076e-07,-0.0273678,4.40107e-05,-0.00035596,4.43442e-07,0.156986,0.000252452,0.00204184,2.54366e-06,0.269327,-0.174332,51.341,10000000,0
0.5,0.0430522,6.9233e-05,0.000559958,6.97577e-07,-0.0299011,4.80845e-05,-0.000388908,4.84489e-07,0.156986,0.000252453,0.00204184,2.54366e-06,0.274242,-0.19047,50.8976,10000000,0
0.55,0.0438154,7.04604e-05,0.000569883,7.09942e-07,-0.0322964,5.19366e-05,-0.000420062,5.233e-07,0.156986,0.000252453,0.00204183,2.54365e-06,0.279103,-0.205728,51.6988,10000000,0
0.6,0.0445652,7.16662e-05,0.000579634,7.22091e-07,-0.0343713,5.52732e-05,-0.000447048,5.56918e-07,0.156986,0.000252453,0.00204183,2.54365e-06,0.28388,-0.218945,51.0055,10000000,0
0.65,0.0452464,7.27616e-05,0.000588493,7.33127e-07,-0.0358878,5.77119e-05,-0.000466771,5.8149e-07,0.156986,0.000252453,0.00204183,2.54365e-06,0.288219,-0.228605,51.6498,10000000,0
0.7,0.0458046,7.36594e-05,0.000595753,7.42172e-07,-0.0365952,5.88495e-05,-0.000475972,5.92952e-07,0.156986,0.000252453,0.00204182,2.54365e-06,0.291775,-0.233111,51.6843,10000000,0
0.75,0.0462007,7.42964e-05,0.000600904,7.48589e-07,-0.036349,5.84535e-05,-0.000472768,5.88961e-07,0.156986,0.000252453,0.00204182,2.54364e-06,0.294298,-0.231542,51.6508,10000000,0
0.8,0.04643,7.46651e-05,0.000603884,7.52303e-07,-0.0351805,5.65745e-05,-0.000457569,5.70027e-07,0.156986,0.000252453,0.00204181,2.54364e-06,0.295759,-0.224099,51.6871,10000000,0
0.1,0.0316565,5.09071e-05,0.000411762,5.12946e-07,-0.0112223,1.80467e-05,-0.000145971,1.81841e-07,0.156986,0.000252452,0.00204195,2.54373e-06,0.201651,-0.0714858,51.5141,10000000,0
0.15,0.0316406,5.08817e-05,0.000411547,5.12683e-07,-0.0121883,1.96002e-05,-0.000158533,1.97492e-07,0.156986,0.000252452,0.00204191,2.5437e-06,0.20155,-0.0776395,51.565,10000000,0
0.2,0.0321432,5.16899e-05,0.000418079,5.20824e-07,-0.0140057,2.25228e-05,-0.00018217,2.26938e-07,0.156986,0.000252452,0.00204189,2.54369e-06,0.204751,-0.0892163,50.9355,10000000,0
0.25,0.0330769,5.31915e-05,0.000430221,5.35951e-07,-0.016463,2.64745e-05,-0.00021413,2.66754e-07,0.156986,0.000252452,0.00204187,2.54368e-06,0.210699,-0.104869,51.3091,10000000,0
0.3,0.0341679,5.4946e-05,0.000444409,5.53627e-07,-0.0192182,3.09052e-05,-0.000249965,3.11396e-07,0.156986,0.000252452,0.00204186,2.54367e-06,0.217649,-0.12242,50.9238,10000000,0
0.35,0.0352119,5.66249e-05,0.000457987,5.70542e-07,-0.0220161,3.54045e-05,-0.000286354,3.56729e-07,0.156986,0.000252452,0.00204185,2.54366e-06,0.224299,-0.140242,51.1557,10000000,0
0.4,0.0361327,5.81057e-05,0.000469962,5.85461e-07,-0.0247444,3.97919e-05,-0.000321839,4.00935e-07,0.156986,0.000252452,0.00204185,2.54366e-06,0.230165,-0.157621,51.2673,10000000,0
0.45,0.0369483,5.94173e-05,0.000480569,5.98676e-07,-0.0274034,4.40679e-05,-0.000356422,4.44019e-07,0.156986,0.000252452,0.00204184,2.54366e-06,0.23536,-0.174559,51.4615,10000000,0
0.5,0.037706,6.06357e-05,0.000490422,6.10952e-07,-0.0300051,4.82518e-05,-0.000390261,4.86174e-07,0.156986,0.000252453,0.00204184,2.54365e-06,0.240187,-0.191132,51.5013,10000000,0
0.55,0.0384256,6.17929e-05,0.00049978,6.22611e-07,-0.0324749,5.22235e-05,-0.000422383,5.26191e-07,0.156986,0.000252453,0.00204183,2.54365e-06,0.24477,-0.206864,51.4605,10000000,0
0.6,0.0390781,6.28423e-05,0.000508267,6.33183e-07,-0.0346182,5.56702e-05,-0.000450259,5.60919e-07,0.156986,0.000252453,0.00204183,2.54365e-06,0.248927,-0.220518,51.5662,10000000,0
0.65,0.039605,6.36897e-05,0.000515119,6.4172e-07,-0.0361833,5.81872e-05,-0.000470615,5.86278e-07,0.156986,0.000252453,0.00204183,2.54365e-06,0.252284,-0.230487,51.6896,10000000,0
0.7,0.0399589,6.42588e-05,0.000519721,6.47453e-07,-0.0369041,5.93462e-05,-0.000479988,5.97956e-07,0.156986,0.000252453,0.00204182,2.54364e-06,0.254538,-0.235078,51.7397,10000000,0
0.75,0.0401229,6.45224e-05,0.000521852,6.50109e-07,-0.0366248,5.88972e-05,-0.000476355,5.93431e-07,0.156986,0.000252453,0.00204182,2.54364e-06,0.255582,-0.2333,51.2895,10000000,0
0.8,0.0401185,6.45155e-05,0.000521794,6.50038e-07,-0.0353754,5.6888e-05,-0.000460104,5.73186e-07,0.156986,0.000252453,0.00204181,2.54364e-06,0.255554,-0.225341,51.3142,10000000,0
0.1,0.0344863,5.54577e-05,0.000448571,5.588e-07,-0.0110388,1.77516e-05,-0.000143584,1.78867e-07,0.156986,0.000252451,0.00204196,2.54373e-06,0.219677,-0.0703167,51.542,10000000,0
0.15,0.0343964,5.53133e-05,0.000447392,5.57337e-07,-0.0120295,1.93448e-05,-0.000156467,1.94918e-07,0.156986,0.000252452,0.00204191,2.5437e-06,0.219104,-0.0766275,51.8823,10000000,0
0.2,0.0348535,5.60485e-05,0.000453333,5.64741e-07,-0.0138487,2.22704e-05,-0.000180128,2.24395e-07,0.156986,0.000252452,0.00204189,2.54369e-06,0.222016,-0.0882162,51.828,10000000,0
0.25,0.035778,5.75353e-05,0.000465355,5.79719e-07,-0.0162818,2.61831e-05,-0.000211773,2.63817e-07,0.156986,0.000252452,0.00204187,2.54368e-06,0.227906,-0.103715,50.9101,10000000,0
0.3,0.0368799,5.93073e-05,0.000479684,5.97571e-07,-0.0189901,3.05384e-05,-0.000246998,3.077e-07,0.156986,0.000252452,0.00204186,2.54367e-06,0.234925,-0.120967,51.4629,10000000,0
0.35,0.037936,6.10055e-05,0.000493418,6.14681e-07,-0.0217236,3.49341e-05,-0.00028255,3.5199e-07,0.156986,0.000252452,0.00204186,2.54367e-06,0.241652,-0.138379,51.4981,10000000,0
0.4,0.038858,6.24882e-05,0.000505408,6.29619e-07,-0.0243736,3.91956e-05,-0.000317016,3.94927e-07,0.156986,0.000252452,0.00204185,2.54366e-06,0.247525,-0.155259,51.3064,10000000,0
0.45,0.0396639,6.37843e-05,0.000515889,6.42677e-07,-0.0269422,4.33263e-05,-0.000350424,4.36547e-07,0.156986,0.000252452,0.00204184,2.54366e-06,0.252658,-0.171622,51.5122,10000000,0
0.5,0.0404128,6.49885e-05,0.000525628,6.5481e-07,-0.029444,4.73495e-05,-0.000382963,4.77082e-07,0.156986,0.000252453,0.00204184,2.54365e-06,0.257429,-0.187558,51.7107,10000000,0
0.55,0.0411432,6.61633e-05,0.000535128,6.66645e-07,-0.0318109,5.11557e-05,-0.000413747,5.15433e-07,0.156986,0.000252453,0.00204183,2.54365e-06,0.262082,-0.202635,51.0177,10000000,0
0.6,0.0418427,6.72881e-05,0.000544224,6.77978e-07,-0.0338608,5.44523e-05,-0.000440408,5.48647e-07,0.156986,0.000252453,0.00204183,2.54365e-06,0.266537,-0.215693,51.1793,10000000,0
0.65,0.0424563,6.82749e-05,0.000552204,6.8792e-07,-0.0353573,5.68588e-05,-0.000459872,5.72895e-07,0.156986,0.000252453,0.00204183,2.54365e-06,0.270446,-0.225226,51.5604,10000000,0
0.7,0.0429337,6.90425e-05,0.000558412,6.95653e-07,-0.036051,5.79744e-05,-0.000468893,5.84134e-07,0.156986,0.000252453,0.00204182,2.54364e-06,0.273487,-0.229645,51.2733,10000000,0
0.75,0.0432439,6.95415e-05,0.000562446,7.0068e-07,-0.035798,5.75675e-05,-0.000465601,5.80033e-07,0.156986,0.000252453,0.00204182,2.54364e-06,0.275463,-0.228033,51.9973,10000000,0
0.8,0.0433913,6.97784e-05,0.000564361,7.03066e-07,-0.0346291,5.56879e-05,-0.000450398,5.61094e-07,0.156986,0.000252453,0.00204181,2.54364e-06,0.276402,-0.220587,51.7227,10000000,0
0.1,0.0284107,4.56876e-05,0.000369543,4.60353e-07,-0.0117441,1.88859e-05,-0.000152758,1.90296e-07,0.156986,0.000252452,0.00204194,2.54373e-06,0.180976,-0.0748099,52.0292,10000000,0
0.15,0.0285433,4.59008e-05,0.000371259,4.62496e-07,-0.01287,2.06964e-05,-0.000167399,2.08537e-07,0.156986,0.000252452,0.0020419,2.5437e-06,0.18182,-0.0819817,50.3481,10000000,0
0.2,0.029124,4.68349e-05,0.00037881,4.71904e-07,-0.0147556,2.37287e-05,-0.000191922,2.39088e-07,0.156986,0.000252452,0.00204188,2.54368e-06,0.18552,-0.0939927,51.5836,10000000,0
0.25,0.0300521,4.83273e-05,0.000390878,4.86939e-07,-0.0171845,2.76347e-05,-0.000223514,2.78444e-07,0.156986,0.000252452,0.00204187,2.54367e-06,0.191431,-0.109465,51.0853,10000000,0
0.3,0.0310829,4.9985e-05,0.000404284,5.03641e-07,-0.0198304,3.18896e-05,-0.000257927,3.21315e-07,0.156986,0.000252452,0.00204186,2.54367e-06,0.197998,-0.126319,50.7586,10000000,0
