z2,<dsig|c12>_U,err_<dsig|c12>_U,<ALL|c12>_U,err_<ALL|c12>_U,<dsig|c12>_L,err_<dsig|c12>_L,<ALL|c12>_L,err_<ALL|c12>_L,BU_o_AU,err_BU_o_AU,BL_o_AU,err_BL_o_AU,Collins_U,Collins_L,time[s],neval,fail
0.1,0.029039,4.66979e-05,0.000377721,4.70537e-07,-0.00839672,1.35028e-05,-0.000109219,1.36057e-07,0.156986,0.000252451,0.00204198,2.54375e-06,0.184978,-0.0534869,51.6817,10000000,0
0.15,0.0289447,4.65463e-05,0.000376489,4.69006e-07,-0.0094491,1.51952e-05,-0.000122906,1.53109e-07,0.156986,0.000252452,0.00204195,2.54373e-06,0.184377,-0.0601906,51.2168,10000000,0
0.2,0.0293632,4.72194e-05,0.000381927,4.75783e-07,-0.0111368,1.79092e-05,-0.000144856,1.80453e-07,0.156986,0.000252452,0.00204192,2.54371e-06,0.187043,-0.0709411,50.8634,10000000,0
0.25,0.0302266,4.86079e-05,0.000393153,4.89771e-07,-0.0132439,2.12978e-05,-0.000172261,2.14595e-07,0.156986,0.000252452,0.00204189,2.54369e-06,0.192543,-0.0843636,51.0473,10000000,0
0.3,0.0312663,5.02799e-05,0.000406673,5.06615e-07,-0.0154924,2.49136e-05,-0.000201506,2.51027e-07,0.156986,0.000252452,0.00204188,2.54368e-06,0.199166,-0.0986864,51.6985,10000000,0
0.35,0.0322688,5.18921e-05,0.00041971,5.22857e-07,-0.0177035,2.84693e-05,-0.000230263,2.86852e-07,0.156986,0.000252452,0.00204187,2.54367e-06,0.205552,-0.112771,51.6436,10000000,0
0.4,0.0331443,5.32999e-05,0.000431095,5.37041e-07,-0.0198205,3.18737e-05,-0.000257798,3.21154e-07,0.156986,0.000252452,0.00204186,2.54367e-06,0.211129,-0.126256,51.5028,10000000,0
0.45,0.0339072,5.45268e-05,0.000441017,5.49402e-07,-0.0218566,3.51481e-05,-0.00028428,3.54145e-07,0.156986,0.000252452,0.00204185,2.54366e-06,0.215989,-0.139226,51.036,10000000,0
0.5,0.034619,5.56714e-05,0.000450273,5.60934e-07,-0.0238005,3.82741e-05,-0.000309563,3.85642e-07,0.156986,0.000252452,0.00204185,2.54366e-06,0.220522,-0.151609,51.2343,10000000,0
0.55,0.0353275,5.68109e-05,0.000459488,5.72414e-07,-0.025549,4.10859e-05,-0.000332303,4.13972e-07,0.156986,0.000252452,0.00204184,2.54366e-06,0.225036,-0.162747,51.8481,10000000,0
0.6,0.0360323,5.79442e-05,0.000468653,5.83833e-07,-0.0269076,4.32707e-05,-0.000349974,4.35986e-07,0.156986,0.000252453,0.00204184,2.54365e-06,0.229525,-0.171401,51.6249,10000000,0
0.65,0.0366842,5.89926e-05,0.000477131,5.94395e-07,-0.0276745,4.4504e-05,-0.000359948,4.48411e-07,0.156986,0.000252453,0.00204183,2.54365e-06,0.233678,-0.176286,50.7152,10000000,0
0.7,0.0372328,5.98748e-05,0.000484266,6.03283e-07,-0.0276655,4.44895e-05,-0.00035983,4.48265e-07,0.156986,0.000252453,0.00204183,2.54365e-06,0.237172,-0.176229,51.3006,10000000,0
0.75,0.0376375,6.05256e-05,0.000489528,6.0984e-07,-0.0268314,4.31482e-05,-0.00034898,4.34749e-07,0.156986,0.000252453,0.00204183,2.54365e-06,0.23975,-0.170916,51.5522,10000000,0
0.8,0.0378882,6.09289e-05,0.000492788,6.13902e-07,-0.0252882,4.06665e-05,-0.000328908,4.09745e-07,0.156986,0.000252453,0.00204182,2.54364e-06,0.241348,-0.161086,51.3651,10000000,0
0.1,0.033838,5.44152e-05,0.000440141,5.48297e-07,-0.0081177,1.30542e-05,-0.000105589,1.31536e-07,0.156986,0.000252451,0.00204197,2.54374e-06,0.215547,-0.0517096,51.7936,10000000,0
0.15,0.0336114,5.40508e-05,0.000437191,5.44624e-07,-0.00911712,1.46613e-05,-0.000118589,1.4773e-07,0.156986,0.000252451,0.00204196,2.54374e-06,0.214104,-0.0580759,51.6467,10000000,0
0.2,0.0339875,5.46558e-05,0.000442077,5.50714e-07,-0.0108384,1.74294e-05,-0.000140975,1.75619e-07,0.156986,0.000252452,0.00204192,2.54371e-06,0.2165,-0.0690405,51.9613,10000000,0
0.25,0.0349061,5.6133e-05,0.000454019,5.65594e-07,-0.0130588,2.10001e-05,-0.000169854,2.11596e-07,0.156986,0.000252452,0.0020419,2.5437e-06,0.222351,-0.0831844,51.6522,10000000,0
0.3,0.0360559,5.79821e-05,0.000468971,5.84223e-07,-0.0154785,2.48913e-05,-0.000201326,2.50802e-07,0.156986,0.000252452,0.00204188,2.54369e-06,0.229676,-0.098598,51.4959,10000000,0
0.35,0.0371797,5.97893e-05,0.000483585,6.0243e-07,-0.0178984,2.87828e-05,-0.0002328,2.90012e-07,0.156986,0.000252452,0.00204187,2.54368e-06,0.236834,-0.114013,51.8773,10000000,0
0.4,0.0381627,6.137e-05,0.000496368,6.18355e-07,-0.0202506,3.25654e-05,-0.000263393,3.28124e-07,0.156986,0.000252452,0.00204186,2.54367e-06,0.243096,-0.128996,51.4445,10000000,0
0.45,0.0390186,6.27465e-05,0.000507499,6.32223e-07,-0.0225449,3.62548e-05,-0.000293232,3.65297e-07,0.156986,0.000252452,0.00204186,2.54367e-06,0.248548,-0.143611,51.7893,10000000,0
0.5,0.0398255,6.40441e-05,0.000517992,6.45296e-07,-0.0247642,3.98238e-05,-0.000322098,4.01257e-07,0.156986,0.000252452,0.00204185,2.54366e-06,0.253688,-0.157748,51.7362,10000000,0
0.55,0.0406523,6.53737e-05,0.000528745,6.58692e-07,-0.0267875,4.30775e-05,-0.000348412,4.3404e-07,0.156986,0.000252452,0.00204184,2.54366e-06,0.258955,-0.170636,51.4076,10000000,0
0.6,0.0415097,6.67526e-05,0.000539896,6.72585e-07,-0.0283865,4.56489e-05,-0.000369209,4.59948e-07,0.156986,0.000252453,0.00204184,2.54366e-06,0.264417,-0.180822,51.4366,10000000,0
0.65,0.0423418,6.80907e-05,0.000550718,6.86066e-07,-0.0293198,4.71498e-05,-0.000381347,4.7507e-07,0.156986,0.000252453,0.00204184,2.54365e-06,0.269717,-0.186767,51.3129,10000000,0
0.7,0.0430848,6.92856e-05,0.00056038,6.98104e-07,-0.0293624,4.72183e-05,-0.000381901,4.7576e-07,0.156986,0.000252453,0.00204183,2.54365e-06,0.27445,-0.187038,51.1,10000000,0
0.75,0.0436778,7.02392e-05,0.000568092,7.07712e-07,-0.0284427,4.57393e-05,-0.000369938,4.60858e-07,0.156986,0.000252453,0.00204183,2.54365e-06,0.278227,-0.18118,51.5062,10000000,0
0.8,0.0440933,7.09074e-05,0.000573495,7.14444e-07,-0.0266823,4.29084e-05,-0.000347041,4.32334e-07,0.156986,0.000252453,0.00204182,2.54364e-06,0.280874,-0.169966,51.4615,10000000,0
0.1,0.0345883,5.56218e-05,0.000449899,5.60454e-07,-0.00724215,1.16462e-05,-9.42006e-05,1.17349e-07,0.156986,0.000252451,0.00204196,2.54374e-06,0.220327,-0.0461323,51.521,10000000,0
0.15,0.0342907,5.51432e-05,0.000446028,5.55632e-07,-0.00811412,1.30484e-05,-0.000105542,1.31478e-07,0.156986,0.000252451,0.00204196,2.54374e-06,0.218431,-0.0516868,51.2287,10000000,0
0.2,0.0346106,5.56578e-05,0.000450181,5.6081e-07,-0.0097099,1.56146e-05,-0.000126297,1.57334e-07,0.156986,0.000252452,0.00204193,2.54371e-06,0.220469,-0.0618519,51.2983,10000000,0
0.25,0.0354975,5.70841e-05,0.000461712,5.75178e-07,-0.0118234,1.90133e-05,-0.000153785,1.91578e-07,0.156986,0.000252452,0.0020419,2.5437e-06,0.226119,-0.0753146,51.1575,10000000,0
0.3,0.0366354,5.89141e-05,0.000476509,5.93613e-07,-0.0141657,2.27801e-05,-0.00018425,2.29531e-07,0.156986,0.000252452,0.00204189,2.54369e-06,0.233367,-0.0902354,50.5634,10000000,0
0.35,0.0377567,6.07173e-05,0.000491091,6.1178e-07,-0.0165403,2.65987e-05,-0.000215135,2.68006e-07,0.156986,0.000252452,0.00204187,2.54368e-06,0.24051,-0.105361,51.3153,10000000,0
0.4,0.0387386,6.22962e-05,0.00050386,6.27688e-07,-0.0188768,3.03561e-05,-0.000245524,3.05864e-07,0.156986,0.000252452,0.00204186,2.54367e-06,0.246764,-0.120245,51.2489,10000000,0
0.45,0.0395934,6.36709e-05,0.000514976,6.41537e-07,-0.0211818,3.40628e-05,-0.000275503,3.43211e-07,0.156986,0.000252452,0.00204186,2.54367e-06,0.25221,-0.134928,51.2493,10000000,0
0.5,0.0404047,6.49755e-05,0.000525526,6.54681e-07,-0.0234354,3.76869e-05,-0.000304814,3.79726e-07,0.156986,0.000252452,0.00204185,2.54366e-06,0.257377,-0.149283,51.8028,10000000,0
0.55,0.0412503,6.63353e-05,0.000536523,6.68381e-07,-0.0255121,4.10264e-05,-0.000331823,4.13374e-07,0.156986,0.000252452,0.00204185,2.54366e-06,0.262764,-0.162512,50.518,10000000,0
0.6,0.0421477,6.77785e-05,0.000548194,6.82921e-07,-0.0271752,4.3701e-05,-0.000353454,4.40321e-07,0.156986,0.000252453,0.00204184,2.54366e-06,0.26848,-0.173106,51.638,10000000,0
0.65,0.0430402,6.92138e-05,0.000559801,6.97382e-07,-0.0281707,4.53019e-05,-0.000366402,4.56451e-07,0.156986,0.000252453,0.00204184,2.54365e-06,0.274165,-0.179447,51.58,10000000,0
0.7,0.0438596,7.05316e-05,0.000570458,7.10659e-07,-0.0282576,4.54417e-05,-0.000367532,4.57859e-07,0.156986,0.000252453,0.00204183,2.54365e-06,0.279385,-0.180001,50.9043,10000000,0
0.75,0.0445358,7.16189e-05,0.000579251,7.21614e-07,-0.0273502,4.39824e-05,-0.000355728,4.43155e-07,0.156986,0.000252453,0.00204183,2.54365e-06,0.283692,-0.17422,51.38,10000000,0
0.8,0.0450312,7.24156e-05,0.000585693,7.2964e-07,-0.0255624,4.11075e-05,-0.000332475,4.14188e-07,0.156986,0.000252453,0.00204182,2.54365e-06,0.286848,-0.162832,51.3149,10000000,0
0.1,0.0331858,5.33664e-05,0.000431658,5.37729e-07,-0.00792175,1.2739e-05,-0.000103041,1.28361e-07,0.156986,0.000252451,0.00204197,2.54374e-06,0.211393,-0.0504614,51.1488,10000000,0
0.15,0.0329621,5.30067e-05,0.000428746,5.34103e-07,-0.0089182,1.43415e-05,-0.000116001,1.44507e-07,0.156986,0.000252451,0.00204196,2.54374e-06,0.209968,-0.0568088,51.2192,10000000,0
0.2,0.0333214,5.35847e-05,0.000433413,5.39921e-07,-0.010585,1.70219e-05,-0.000137679,1.71513e-07,0.156986,0.000252452,0.00204192,2.54371e-06,0.212257,-0.0674262,51.6805,10000000,0
0.25,0.034206,5.50072e-05,0.000444913,5.5425e-07,-0.0127049,2.0431e-05,-0.000165251,2.05862e-07,0.156986,0.000252452,0.0020419,2.5437e-06,0.217892,-0.0809301,51.358,10000000,0
0.3,0.0353134,5.67881e-05,0.000459314,5.72192e-07,-0.0149925,2.41097e-05,-0.000195004,2.42927e-07,0.156986,0.000252452,0.00204188,2.54368e-06,0.224946,-0.0955021,51.1699,10000000,0
0.35,0.036393,5.85242e-05,0.000473353,5.89683e-07,-0.0172608,2.77575e-05,-0.000224507,2.79681e-07,0.156986,0.000252452,0.00204187,2.54368e-06,0.231823,-0.109951,50.9445,10000000,0
0.4,0.0373327,6.00354e-05,0.000485573,6.04907e-07,-0.019448,3.12747e-05,-0.000252953,3.15119e-07,0.156986,0.000252452,0.00204186,2.54367e-06,0.237809,-0.123884,51.2337,10000000,0
0.45,0.0381461,6.13435e-05,0.000496151,6.18086e-07,-0.0215653,3.46795e-05,-0.000280491,3.49425e-07,0.156986,0.000252452,0.00204186,2.54367e-06,0.24299,-0.13737,51.1286,10000000,0
0.5,0.0389113,6.2574e-05,0.000506102,6.30483e-07,-0.0236,3.79516e-05,-0.000306955,3.82393e-07,0.156986,0.000252452,0.00204185,2.54366e-06,0.247864,-0.150332,51.2651,10000000,0
0.55,0.0396994,6.38414e-05,0.000516352,6.43253e-07,-0.0254443,4.09174e-05,-0.000330941,4.12275e-07,0.156986,0.000252452,0.00204184,2.54366e-06,0.252885,-0.16208,51.1748,10000000,0
0.6,0.0405261,6.51708e-05,0.000527102,6.56647e-07,-0.0268934,4.32478e-05,-0.000349789,4.35755e-07,0.156986,0.000252453,0.00204184,2.54366e-06,0.258151,-0.171311,51.4801,10000000,0
0.65,0.0413399,6.64795e-05,0.000537686,6.69832e-07,-0.027732,4.45964e-05,-0.000360695,4.49343e-07,0.156986,0.000252453,0.00204184,2.54365e-06,0.263335,-0.176652,51.2591,10000000,0
0.7,0.0420805,6.76706e-05,0.000547318,6.81832e-07,-0.0277609,4.46428e-05,-0.00036107,4.4981e-07,0.156986,0.000252453,0.00204183,2.54365e-06,0.268053,-0.176837,51.1907,10000000,0
0.75,0.0426868,6.86455e-05,0.000555202,6.91654e-07,-0.0269209,4.3292e-05,-0.000350144,4.36199e-07,0.156986,0.000252453,0.00204183,2.54365e-06,0.271914,-0.171486,51.2812,10000000,0
0.8,0.0431276,6.93543e-05,0.000560934,6.98795e-07,-0.0253268,4.07285e-05,-0.00032941,4.10369e-07,0.156986,0.000252453,0.00204182,2.54364e-06,0.274722,-0.161331,50.628,10000000,0
0.1,0.0382974,6.15865e-05,0.000498141,6.20552e-07,-0.00647663,1.04151e-05,-8.42428e-05,1.04944e-07,0.156986,0.000252452,0.00204195,2.54373e-06,0.243954,-0.041256,51.4252,10000000,0
0.15,0.0378824,6.09191e-05,0.000492748,6.13831e-07,-0.00721799,1.16073e-05,-9.38864e-05,1.16957e-07,0.156986,0.000252451,0.00204197,2.54374e-06,0.24131,-0.0459784,51.5183,10000000,0
0.2,0.0381496,6.13488e-05,0.000496214,6.18154e-07,-0.00873048,1.40396e-05,-0.000113558,1.41464e-07,0.156986,0.000252452,0.00204193,2.54372e-06,0.243012,-0.055613,51.7479,10000000,0
0.25,0.0390587,6.28109e-05,0.000508033,6.32881e-07,-0.0108232,1.74049e-05,-0.000140776,1.75372e-07,0.156986,0.000252452,0.00204191,2.5437e-06,0.248803,-0.0689436,51.4458,10000000,0
0.3,0.0402639,6.4749e-05,0.000523704,6.52406e-07,-0.0132076,2.12393e-05,-0.000171788,2.14006e-07,0.156986,0.000252452,0.00204189,2.54369e-06,0.25648,-0.0841321,51.2759,10000000,0
0.35,0.0414638,6.66786e-05,0.000539308,6.71846e-07,-0.0156793,2.52141e-05,-0.000203936,2.54055e-07,0.156986,0.000252452,0.00204188,2.54368e-06,0.264124,-0.0998768,50.5224,10000000,0
0.4,0.0425157,6.83702e-05,0.000552987,6.88888e-07,-0.0181609,2.92048e-05,-0.000236212,2.94264e-07,0.156986,0.000252452,0.00204187,2.54367e-06,0.270824,-0.115685,51.4673,10000000,0
0.45,0.043431,6.98422e-05,0.000564891,7.03719e-07,-0.0206552,3.3216e-05,-0.000268654,3.34679e-07,0.156986,0.000252452,0.00204186,2.54367e-06,0.276655,-0.131573,51.2423,10000000,0
0.5,0.0443075,7.12517e-05,0.000576289,7.17919e-07,-0.0231373,3.72075e-05,-0.000300937,3.74896e-07,0.156986,0.000252452,0.00204185,2.54366e-06,0.282238,-0.147384,51.5932,10000000,0
0.55,0.0452415,7.27538e-05,0.000588436,7.33052e-07,-0.0254653,4.09512e-05,-0.000331215,4.12616e-07,0.156986,0.000252452,0.00204185,2.54366e-06,0.288188,-0.162213,51.2042,10000000,0
0.6,0.0462617,7.43944e-05,0.000601704,7.49582e-07,-0.0273703,4.40147e-05,-0.000355992,4.43482e-07,0.156986,0.000252452,0.00204184,2.54366e-06,0.294687,-0.174348,51.6769,10000000,0
0.65,0.047306,7.60737e-05,0.000615285,7.66502e-07,-0.0285563,4.5922e-05,-0.000371417,4.62699e-07,0.156986,0.000252453,0.00204184,2.54365e-06,0.301339,-0.181903,50.7759,10000000,0
0.7,0.0482949,7.7664e-05,0.000628146,7.82524e-07,-0.0287348,4.6209e-05,-0.000373738,4.65591e-07,0.156986,0.000252453,0.00204183,2.54365e-06,0.307638,-0.18304,51.3935,10000000,0
0.75,0.0491394,7.90221e-05,0.000639129,7.96207e-07,-0.0277863,4.46837e-05,-0.0003614,4.50221e-07,0.156986,0.000252453,0.00204183,2.54365e-06,0.313018,-0.176998,51.7072,10000000,0
0.8,0.0497852,8.00606e-05,0.000647526,8.06669e-07,-0.0258179,4.15183e-05,-0.000335798,4.18328e-07,0.156986,0.000252453,0.00204182,2.54365e-06,0.317131,-0.16446,51.553,10000000,0
0.1,0.0272995,4.39007e-05,0.000355095,4.42352e-07,-0.0087299,1.40386e-05,-0.000113553,1.41456e-07,0.156986,0.000252451,0.00204198,2.54375e-06,0.173898,-0.0556093,51.5968,10000000,0
0.15,0.0272763,4.38634e-05,0.000354787,4.41972e-07,-0.00980971,1.57751e-05,-0.000127596,1.58952e-07,0.156986,0.000252452,0.00204194,2.54373e-06,0.17375,-0.0624877,51.6437,10000000,0
0.2,0.0277433,4.46143e-05,0.000360855,4.49534e-07,-0.0115397,1.85571e-05,-0.000150096,1.86981e-07,0.156986,0.000252452,0.00204191,2.5437e-06,0.176724,-0.0735075,51.4276,10000000,0
0.25,0.0286242,4.60311e-05,0.000372311,4.63807e-07,-0.0137008,2.20325e-05,-0.000178204,2.21998e-07,0.156986,0.000252452,0.00204189,2.54369e-06,0.182336,-0.0872741,51.0759,10000000,0
0.3,0.029662,4.77e-05,0.000385806,4.8062e-07,-0.0160097,2.57455e-05,-0.000208234,2.59409e-07,0.156986,0.000252452,0.00204188,2.54368e-06,0.188947,-0.101982,51.5502,10000000,0
0.35,0.0306583,4.93021e-05,0.000398762,4.96761e-07,-0.018284,2.94028e-05,-0.000237814,2.96259e-07,0.156986,0.000252452,0.00204187,2.54367e-06,0.195293,-0.116469,51.4292,10000000,0
0.4,0.0315333,5.07092e-05,0.000410141,5.10938e-07,-0.0204659,3.29116e-05,-0.000266192,3.31612e-07,0.156986,0.000252452,0.00204186,2.54367e-06,0.200866,-0.130368,51.6651,10000000,0
0.45,0.0323022,5.19458e-05,0.000420141,5.23396e-07,-0.0225684,3.62927e-05,-0.000293538,3.65678e-07,0.156986,0.000252452,0.00204185,2.54366e-06,0.205765,-0.143761,50.8925,10000000,0
0.5,0.0330173,5.30958e-05,0.000429441,5.34983e-07,-0.0245781,3.95245e-05,-0.000319676,3.98241e-07,0.156986,0.000252452,0.00204185,2.54366e-06,0.21032,-0.156562,51.3155,10000000,0
0.55,0.033712,5.42129e-05,0.000438475,5.46238e-07,-0.026386,4.24318e-05,-0.000343189,4.27534e-07,0.156986,0.000252452,0.00204184,2.54366e-06,0.214745,-0.168078,51.4507,10000000,0
0.6,0.0343729,5.52758e-05,0.000447071,5.56946e-07,-0.0277886,4.46874e-05,-0.000361432,4.5026e-07,0.156986,0.000252453,0.00204184,2.54365e-06,0.218955,-0.177013,51.1415,10000000,0
0.65,0.0349489,5.6202e-05,0.000454561,5.66278e-07,-0.0285753,4.59525e-05,-0.000371663,4.63006e-07,0.156986,0.000252453,0.00204183,2.54365e-06,0.222624,-0.182024,51.0251,10000000,0
0.7,0.0353925,5.69154e-05,0.00046033,5.73465e-07,-0.028554,4.59183e-05,-0.000371386,4.62661e-07,0.156986,0.000252453,0.00204183,2.54365e-06,0.22545,-0.181889,51.6432,10000000,0
0.75,0.0356749,5.73695e-05,0.000464002,5.7804e-07,-0.0276735,4.45023e-05,-0.000359932,4.48393e-07,0.156986,0.000252453,0.00204182,2.54365e-06,0.227248,-0.17628,51.4294,10000000,0
0.8,0.0358006,5.75716e-05,0.000465635,5.80076e-07,-0.0260547,4.18992e-05,-0.000338877,4.22164e-07,0.156986,0.000252453,0.00204182,2.54364e-06,0.228049,-0.165968,51.6159,10000000,0
0.1,0.0306721,4.9324e-05,0.000398962,4.96998e-07,-0.00806522,1.29698e-05,-0.000104907,1.30686e-07,0.156986,0.000252451,0.00204197,2.54375e-06,0.19538,-0.0513753,50.5727,10000000,0
0.15,0.0305142,4.90702e-05,0.000396904,4.94437e-07,-0.00906337,1.45749e-05,-0.000117889,1.46859e-07,0.156986,0.000252451,0.00204195,2.54373e-06,0.194375,-0.0577335,51.5999,10000000,0
0.2,0.0309031,4.96957e-05,0.000401956,5.00735e-07,-0.0107334,1.72605e-05,-0.000139609,1.73917e-07,0.156986,0.000252452,0.00204192,2.54371e-06,0.196852,-0.0683715,51.0639,10000000,0
0.25,0.0317759,5.10993e-05,0.000413305,5.14875e-07,-0.0128603,2.06808e-05,-0.000167272,2.08379e-07,0.156986,0.000252452,0.0020419,2.54369e-06,0.202412,-0.0819197,51.8675,10000000,0
0.3,0.0328491,5.28251e-05,0.00042726,5.32261e-07,-0.0151595,2.43783e-05,-0.000197176,2.45634e-07,0.156986,0.000252452,0.00204188,2.54368e-06,0.209248,-0.0965661,51.3417,10000000,0
0.35,0.0338921,5.45025e-05,0.000440824,5.4916e-07,-0.0174446,2.80529e-05,-0.000226896,2.82657e-07,0.156986,0.000252452,0.00204187,2.54368e-06,0.215892,-0.111122,51.0899,10000000,0
0.4,0.0348049,5.59704e-05,0.000452695,5.63949e-07,-0.0196534,3.1605e-05,-0.000255624,3.18447e-07,0.156986,0.000252452,0.00204186,2.54367e-06,0.221707,-0.125192,51.0782,10000000,0
0.45,0.0356013,5.72511e-05,0.000463051,5.76852e-07,-0.0217967,3.50517e-05,-0.000283501,3.53175e-07,0.156986,0.000252452,0.00204185,2.54366e-06,0.22678,-0.138845,51.2289,10000000,0
0.5,0.0363488,5.84533e-05,0.000472773,5.88964e-07,-0.0238599,3.83696e-05,-0.000310335,3.86604e-07,0.156986,0.000252452,0.00204185,2.54366e-06,0.231542,-0.151987,51.6504,10000000,0
0.55,0.0371039,5.96674e-05,0.000482592,6.01197e-07,-0.0257309,4.13784e-05,-0.00033467,4.1692e-07,0.156986,0.000252452,0.00204184,2.54366e-06,0.236351,-0.163906,51.044,10000000,0
0.6,0.0378701,6.08997e-05,0.000492557,6.13611e-07,-0.0271994,4.37399e-05,-0.000353769,4.40713e-07,0.156986,0.000252453,0.00204184,2.54366e-06,0.241232,-0.17326,50.6804,10000000,0
0.65,0.0385954,6.20661e-05,0.00050199,6.25363e-07,-0.0280445,4.50989e-05,-0.00036476,4.54406e-07,0.156986,0.000252453,0.00204183,2.54365e-06,0.245852,-0.178643,51.6185,10000000,0
0.7,0.0392236,6.30762e-05,0.000510159,6.3554e-07,-0.0280622,4.51273e-05,-0.000364989,4.54692e-07,0.156986,0.000252453,0.00204183,2.54365e-06,0.249854,-0.178756,51.1882,10000000,0
0.75,0.0397053,6.38509e-05,0.000516423,6.43345e-07,-0.0271914,4.37271e-05,-0.000353663,4.40583e-07,0.156986,0.000252453,0.00204183,2.54365e-06,0.252922,-0.173209,50.7536,10000000,0
0.8,0.0400231,6.4362e-05,0.000520556,6.48494e-07,-0.0255496,4.10869e-05,-0.000332308,4.1398e-07,0.156986,0.000252453,0.00204182,2.54364e-06,0.254947,-0.162751,51.2598,10000000,0
0.1,0.0334426,5.37793e-05,0.000434998,5.4189e-07,-0.00731199,1.17585e-05,-9.51092e-05,1.1848e-07,0.156986,0.000252451,0.00204197,2.54374e-06,0.213029,-0.0465772,50.853,10000000,0
0.15,0.0331717,5.33437e-05,0.000431471,5.37499e-07,-0.00817859,1.31521e-05,-0.000106381,1.32522e-07,0.156986,0.000252451,0.00204196,2.54374e-06,0.211303,-0.0520975,51.4996,10000000,0
0.2,0.0335035,5.38774e-05,0.000435781,5.42871e-07,-0.0097775,1.57233e-05,-0.000127176,1.58429e-07,0.156986,0.000252452,0.00204192,2.54371e-06,0.213417,-0.0622825,51.3858,10000000,0
0.25,0.0343859,5.52964e-05,0.000447253,5.57165e-07,-0.0119044,1.91437e-05,-0.000154839,1.92891e-07,0.156986,0.000252452,0.0020419,2.5437e-06,0.219038,-0.0758311,51.0206,10000000,0
0.3,0.0355109,5.71056e-05,0.000461882,5.75391e-07,-0.0142699,2.29477e-05,-0.000185606,2.31219e-07,0.156986,0.000252452,0.00204188,2.54368e-06,0.226204,-0.0908993,51.6578,10000000,0
