z2,<dsig|c12>_U,err_<dsig|c12>_U,<ALL|c12>_U,err_<ALL|c12>_U,<dsig|c12>_L,err_<dsig|c12>_L,<ALL|c12>_L,err_<ALL|c12>_L,BU_o_AU,err_BU_o_AU,BL_o_AU,err_BL_o_AU,Collins_U,Collins_L,time[s],neval,fail
0.1,0.0465708,3.4186e-05,0.000608488,3.52129e-07,-0.0141653,1.03983e-05,-0.000185082,1.07106e-07,0.156535,0.000114907,0.00204527,1.18359e-06,0.29751,-0.0904929,103.27,20000000,0
0.15,0.0463954,3.3975e-05,0.000606181,3.4973e-07,-0.0150126,1.09936e-05,-0.000196147,1.13165e-07,0.156536,0.00011463,0.00204523,1.17997e-06,0.296389,-0.0959051,102.506,20000000,0
0.2,0.0468214,3.42251e-05,0.00061174,3.52143e-07,-0.0170248,1.24446e-05,-0.000222435,1.28043e-07,0.156536,0.000114423,0.0020452,1.1773e-06,0.29911,-0.108759,103.465,20000000,0
0.25,0.0479059,7.70384e-05,0.000623093,7.76226e-07,-0.0200619,3.22618e-05,-0.000260937,3.25065e-07,0.156986,0.000252452,0.00204186,2.54367e-06,0.30516,-0.127794,51.081,10000000,0
0.3,0.0490567,7.88891e-05,0.000638059,7.94871e-07,-0.0236005,3.79524e-05,-0.000306961,3.82401e-07,0.156986,0.000252452,0.00204185,2.54366e-06,0.312491,-0.150335,51.5982,10000000,0
0.35,0.0501627,8.06675e-05,0.000652441,8.12789e-07,-0.0273308,4.39511e-05,-0.000355478,4.42842e-07,0.156986,0.000252452,0.00204184,2.54366e-06,0.319535,-0.174097,51.8319,10000000,0
0.4,0.0511299,8.2223e-05,0.00066502,8.2846e-07,-0.0310554,4.99407e-05,-0.000403921,5.03191e-07,0.156986,0.000252453,0.00204184,2.54365e-06,0.325697,-0.197822,51.3796,10000000,0
0.45,0.0519792,8.35887e-05,0.000676064,8.4222e-07,-0.034752,5.58854e-05,-0.000452,5.63088e-07,0.156986,0.000252453,0.00204183,2.54365e-06,0.331107,-0.22137,51.2114,10000000,0
0.5,0.0527716,8.48631e-05,0.00068637,8.55059e-07,-0.0384766,6.1875e-05,-0.000500443,6.23437e-07,0.156986,0.000252453,0.00204183,2.54365e-06,0.336155,-0.245096,51.5566,10000000,0
0.55,0.0535423,8.61026e-05,0.000696393,8.67546e-07,-0.0422231,6.78998e-05,-0.00054917,6.8414e-07,0.156986,0.000252453,0.00204182,2.54365e-06,0.341064,-0.26896,52.0156,10000000,0
0.6,0.0542697,8.72723e-05,0.000705852,8.79331e-07,-0.045833,7.3705e-05,-0.000596121,7.42631e-07,0.156986,0.000252453,0.00204182,2.54364e-06,0.345697,-0.291956,51.349,10000000,0
0.65,0.0548907,8.82708e-05,0.000713927,8.89391e-07,-0.0490055,7.88069e-05,-0.000637383,7.94035e-07,0.156986,0.000252453,0.00204182,2.54364e-06,0.349653,-0.312165,51.1362,10000000,0
0.7,0.0553507,8.90107e-05,0.000719909,8.96844e-07,-0.0513586,8.25908e-05,-0.000667986,8.3216e-07,0.156986,0.000252453,0.00204181,2.54364e-06,0.352583,-0.327153,51.9972,10000000,0
0.75,0.0556224,8.94475e-05,0.000723441,9.01245e-07,-0.0525329,8.44793e-05,-0.000683258,8.51186e-07,0.156986,0.000252453,0.00204181,2.54364e-06,0.354314,-0.334634,51.1655,10000000,0
0.8,0.0557179,8.96012e-05,0.000724682,9.02793e-07,-0.0523313,8.41551e-05,-0.000680635,8.47919e-07,0.156986,0.000252453,0.0020418,2.54363e-06,0.354922,-0.33335,51.8061,10000000,0
0.1,0.0421838,3.09622e-05,0.000551166,3.18921e-07,-0.0136861,1.00454e-05,-0.000178821,1.03471e-07,0.156536,0.000114895,0.00204527,1.18345e-06,0.269484,-0.0874314,104.321,20000000,0
0.15,0.0420449,3.0786e-05,0.000549339,3.169e-07,-0.014398,1.05425e-05,-0.000188118,1.08521e-07,0.156536,0.000114618,0.00204523,1.17984e-06,0.268596,-0.0919791,103.904,20000000,0
0.2,0.0424674,3.10395e-05,0.000554851,3.19364e-07,-0.0162598,1.18844e-05,-0.000212441,1.22277e-07,0.156536,0.000114413,0.0020452,1.17719e-06,0.271294,-0.103873,102.871,20000000,0
0.25,0.0434977,6.99495e-05,0.000565757,7.04799e-07,-0.01915,3.07954e-05,-0.000249076,3.10289e-07,0.156986,0.000252452,0.00204185,2.54367e-06,0.27708,-0.121985,51.9099,10000000,0
0.3,0.0445934,7.17115e-05,0.000580006,7.22551e-07,-0.0225669,3.62903e-05,-0.000293517,3.65653e-07,0.156986,0.000252452,0.00204185,2.54366e-06,0.28406,-0.143751,51.5809,10000000,0
0.35,0.0456514,7.34129e-05,0.000593765,7.39693e-07,-0.0262066,4.21434e-05,-0.000340857,4.24628e-07,0.156986,0.000252452,0.00204184,2.54366e-06,0.290799,-0.166936,51.6904,10000000,0
0.4,0.0465877,7.49186e-05,0.000605941,7.54862e-07,-0.0298736,4.80403e-05,-0.00038855,4.84043e-07,0.156986,0.000252453,0.00204184,2.54365e-06,0.296763,-0.190294,51.9749,10000000,0
0.45,0.0474214,7.62593e-05,0.000616783,7.6837e-07,-0.0335439,5.39427e-05,-0.000436287,5.43513e-07,0.156986,0.000252453,0.00204183,2.54365e-06,0.302074,-0.213674,51.9248,10000000,0
0.5,0.0482033,7.75168e-05,0.000626952,7.81038e-07,-0.0372714,5.99369e-05,-0.000484767,6.03909e-07,0.156986,0.000252453,0.00204183,2.54365e-06,0.307055,-0.237418,50.6642,10000000,0
0.55,0.0489542,7.87243e-05,0.000636717,7.93204e-07,-0.041047,6.60085e-05,-0.000533873,6.65084e-07,0.156986,0.000252453,0.00204182,2.54364e-06,0.311838,-0.261469,52.1141,10000000,0
0.6,0.0496406,7.98281e-05,0.000645643,8.04325e-07,-0.0447063,7.18931e-05,-0.000581466,7.24374e-07,0.156986,0.000252453,0.00204182,2.54364e-06,0.31621,-0.284778,51.9419,10000000,0
0.65,0.0501967,8.07224e-05,0.000652875,8.13335e-07,-0.0479377,7.70897e-05,-0.000623494,7.76733e-07,0.156986,0.000252453,0.00204182,2.54364e-06,0.319752,-0.305363,51.6132,10000000,0
0.7,0.0505697,8.13222e-05,0.000657725,8.19377e-07,-0.0503431,8.09579e-05,-0.000654779,8.15707e-07,0.156986,0.000252453,0.00204181,2.54364e-06,0.322128,-0.320685,52.0486,10000000,0
0.75,0.0507407,8.15973e-05,0.000659948,8.22148e-07,-0.0515445,8.28898e-05,-0.000670402,8.35171e-07,0.156986,0.000252453,0.00204181,2.54364e-06,0.323218,-0.328338,51.0801,10000000,0
0.8,0.0507329,8.15848e-05,0.000659846,8.22021e-07,-0.0513283,8.25422e-05,-0.000667589,8.31667e-07,0.156986,0.000252453,0.0020418,2.54363e-06,0.323168,-0.32696,51.9494,10000000,0
0.1,0.0420997,3.09007e-05,0.000550067,3.18287e-07,-0.0142627,1.04687e-05,-0.000186354,1.07831e-07,0.156536,0.000114895,0.00204527,1.18346e-06,0.268946,-0.0911148,102.718,20000000,0
0.15,0.0419873,3.0744e-05,0.000548587,3.16468e-07,-0.0149966,1.09808e-05,-0.000195939,1.13033e-07,0.156536,0.000114619,0.00204523,1.17985e-06,0.268228,-0.0958032,103.524,20000000,0
0.2,0.0424423,3.10212e-05,0.000554524,3.19175e-07,-0.0169234,1.23693e-05,-0.00022111,1.27267e-07,0.156536,0.000114413,0.0020452,1.17719e-06,0.271134,-0.108111,103.785,20000000,0
0.25,0.0435053,6.99617e-05,0.000565856,7.04922e-07,-0.0199188,3.20318e-05,-0.000259076,3.22746e-07,0.156986,0.000252452,0.00204185,2.54367e-06,0.277129,-0.126882,51.4323,10000000,0
0.3,0.0446313,7.17725e-05,0.0005805,7.23166e-07,-0.0234631,3.77315e-05,-0.000305174,3.80175e-07,0.156986,0.000252452,0.00204185,2.54366e-06,0.284301,-0.14946,51.404,10000000,0
0.35,0.045718,7.352e-05,0.000594631,7.40771e-07,-0.0272415,4.38075e-05,-0.000354316,4.41395e-07,0.156986,0.000252452,0.00204184,2.54366e-06,0.291223,-0.173528,52.229,10000000,0
0.4,0.0466834,7.50726e-05,0.000607187,7.56414e-07,-0.0310506,4.99332e-05,-0.000403859,5.03115e-07,0.156986,0.000252453,0.00204184,2.54365e-06,0.297373,-0.197792,51.7652,10000000,0
0.45,0.0475475,7.64621e-05,0.000618424,7.70413e-07,-0.0348659,5.60685e-05,-0.000453481,5.64932e-07,0.156986,0.000252453,0.00204183,2.54365e-06,0.302877,-0.222095,51.0848,10000000,0
0.5,0.0483579,7.77653e-05,0.000628963,7.83543e-07,-0.0387426,6.23028e-05,-0.000503902,6.27746e-07,0.156986,0.000252453,0.00204183,2.54365e-06,0.308039,-0.24679,51.3509,10000000,0
0.55,0.0491286,7.90048e-05,0.000638986,7.96031e-07,-0.0426708,6.86198e-05,-0.000554993,6.91394e-07,0.156986,0.000252453,0.00204182,2.54364e-06,0.312949,-0.271812,51.4536,10000000,0
0.6,0.0498188,8.01147e-05,0.000647962,8.07213e-07,-0.0464786,7.47433e-05,-0.000604518,7.53092e-07,0.156986,0.000252453,0.00204182,2.54364e-06,0.317345,-0.296068,52.0067,10000000,0
0.65,0.0503594,8.0984e-05,0.000654991,8.15971e-07,-0.049841,8.01504e-05,-0.000648249,8.07572e-07,0.156986,0.000252453,0.00204182,2.54364e-06,0.320789,-0.317487,51.1759,10000000,0
0.7,0.0506971,8.15272e-05,0.000659383,8.21443e-07,-0.0523425,8.41732e-05,-0.000680784,8.48103e-07,0.156986,0.000252453,0.00204181,2.54364e-06,0.32294,-0.333421,51.5786,10000000,0
0.75,0.0508183,8.1722e-05,0.000660957,8.23405e-07,-0.0535886,8.6177e-05,-0.000696989,8.68292e-07,0.156986,0.000252453,0.00204181,2.54364e-06,0.323712,-0.341359,51.9651,10000000,0
0.8,0.0507532,8.16174e-05,0.000660109,8.2235e-07,-0.0533564,8.58037e-05,-0.000693968,8.64529e-07,0.156986,0.000252453,0.0020418,2.54363e-06,0.323297,-0.33988,51.276,10000000,0
0.1,0.0547724,4.01748e-05,0.000715663,4.13809e-07,-0.0131989,9.68119e-06,-0.000172458,9.97182e-08,0.156538,0.000114818,0.00204535,1.18265e-06,0.349899,-0.0843173,103.004,20000000,0
0.15,0.0543465,3.97682e-05,0.000710079,4.09355e-07,-0.0134856,9.86815e-06,-0.0001762,1.01578e-07,0.156538,0.000114547,0.00204529,1.1791e-06,0.347178,-0.0861492,103.311,20000000,0
0.2,0.0546255,3.99049e-05,0.000713713,4.10572e-07,-0.0150275,1.09778e-05,-0.000196343,1.12948e-07,0.156538,0.000114354,0.00204526,1.17656e-06,0.34896,-0.0959989,103.499,20000000,0
0.25,0.055722,8.96075e-05,0.000724755,9.02871e-07,-0.0177542,2.85509e-05,-0.000230922,2.87674e-07,0.156986,0.000252452,0.00204186,2.54367e-06,0.354948,-0.113094,52.0891,10000000,0
0.3,0.0569557,9.15914e-05,0.000740798,9.22858e-07,-0.0211818,3.40629e-05,-0.000275503,3.43211e-07,0.156986,0.000252452,0.00204185,2.54366e-06,0.362807,-0.134928,51.8616,10000000,0
0.35,0.0581786,9.35581e-05,0.000756702,9.42673e-07,-0.0249873,4.01826e-05,-0.000324999,4.04872e-07,0.156986,0.000252452,0.00204185,2.54366e-06,0.370597,-0.159169,51.923,10000000,0
0.4,0.0592613,9.52993e-05,0.000770782,9.60214e-07,-0.0289578,4.65676e-05,-0.000376639,4.69205e-07,0.156986,0.000252453,0.00204184,2.54366e-06,0.377494,-0.184461,51.7503,10000000,0
0.45,0.0602221,9.68443e-05,0.000783276,9.7578e-07,-0.0330679,5.31771e-05,-0.000430096,5.358e-07,0.156986,0.000252453,0.00204183,2.54365e-06,0.383614,-0.210642,51.1757,10000000,0
0.5,0.0611448,9.83283e-05,0.000795276,9.90731e-07,-0.0373822,6.01151e-05,-0.000486209,6.05705e-07,0.156986,0.000252453,0.00204183,2.54365e-06,0.389492,-0.238124,50.9812,10000000,0
0.55,0.0620922,9.98517e-05,0.000807596,1.00608e-06,-0.0418906,6.73652e-05,-0.000544846,6.78754e-07,0.156986,0.000252453,0.00204183,2.54365e-06,0.395526,-0.266843,50.9183,10000000,0
0.6,0.0630527,0.000101396,0.000820087,1.02164e-06,-0.0463876,7.45969e-05,-0.000603335,7.51617e-07,0.156986,0.000252453,0.00204182,2.54364e-06,0.401645,-0.295488,51.5543,10000000,0
0.65,0.0639441,0.00010283,0.00083168,1.03608e-06,-0.0504698,8.11616e-05,-0.000656428,8.17761e-07,0.156986,0.000252453,0.00204182,2.54364e-06,0.407323,-0.321492,51.2051,10000000,0
0.7,0.0646834,0.000104019,0.000841293,1.04806e-06,-0.0536018,8.61982e-05,-0.000697163,8.68507e-07,0.156986,0.000252453,0.00204181,2.54364e-06,0.412032,-0.341443,51.3125,10000000,0
0.75,0.0652082,0.000104863,0.000848118,1.05656e-06,-0.055248,8.88456e-05,-0.000718573,8.95181e-07,0.156986,0.000252453,0.00204181,2.54364e-06,0.415375,-0.351929,51.5337,10000000,0
0.8,0.065506,0.000105342,0.000851989,1.06139e-06,-0.0550664,8.85535e-05,-0.000716209,8.92236e-07,0.156986,0.000252453,0.00204181,2.54363e-06,0.417272,-0.350772,51.2341,10000000,0
0.1,0.0480111,3.52431e-05,0.000627307,3.63018e-07,-0.0137502,1.00935e-05,-0.000179659,1.03967e-07,0.156536,0.000114907,0.00204527,1.18359e-06,0.306711,-0.087841,102.846,20000000,0
0.15,0.0477955,3.50003e-05,0.000624476,3.60285e-07,-0.0145905,1.06845e-05,-0.000190633,1.09984e-07,0.156536,0.00011463,0.00204523,1.17997e-06,0.305333,-0.0932088,102.924,20000000,0
0.2,0.0481915,3.52267e-05,0.000629641,3.62449e-07,-0.0165671,1.21101e-05,-0.000216455,1.24601e-07,0.156536,0.000114424,0.0020452,1.17731e-06,0.307862,-0.105836,103.313,20000000,0
0.25,0.0492651,7.92242e-05,0.000640772,7.98249e-07,-0.0195398,3.14224e-05,-0.000254147,3.16607e-07,0.156986,0.000252452,0.00204186,2.54367e-06,0.313818,-0.124469,51.6705,10000000,0
0.3,0.0504106,8.10663e-05,0.000655669,8.16808e-07,-0.0229967,3.69814e-05,-0.000299108,3.72618e-07,0.156986,0.000252452,0.00204185,2.54366e-06,0.321115,-0.146489,51.6234,10000000,0
0.35,0.0515125,8.28382e-05,0.000669998,8.3466e-07,-0.0266348,4.2832e-05,-0.000346426,4.31566e-07,0.156986,0.000252452,0.00204184,2.54366e-06,0.328134,-0.169663,51.4459,10000000,0
0.4,0.0524713,8.43802e-05,0.000682467,8.50195e-07,-0.0302621,4.8665e-05,-0.000393603,4.90337e-07,0.156986,0.000252453,0.00204184,2.54365e-06,0.334242,-0.192769,51.6329,10000000,0
0.45,0.0533076,8.57251e-05,0.000693343,8.63745e-07,-0.0338571,5.44463e-05,-0.000440361,5.48588e-07,0.156986,0.000252453,0.00204183,2.54365e-06,0.339569,-0.215669,51.2623,10000000,0
0.5,0.0540882,8.69804e-05,0.000703494,8.76392e-07,-0.037475,6.02644e-05,-0.000487416,6.07208e-07,0.156986,0.000252453,0.00204183,2.54365e-06,0.344541,-0.238715,51.7845,10000000,0
0.55,0.0548575,8.82175e-05,0.000713498,8.88856e-07,-0.041111,6.61115e-05,-0.000534706,6.66122e-07,0.156986,0.000252453,0.00204182,2.54365e-06,0.349442,-0.261877,51.0826,10000000,0
0.6,0.0556025,8.94155e-05,0.000723186,9.00925e-07,-0.0446128,7.17428e-05,-0.00058025,7.2286e-07,0.156986,0.000252453,0.00204182,2.54364e-06,0.354187,-0.284183,52.0039,10000000,0
0.65,0.0562622,9.04765e-05,0.000731766,9.11615e-07,-0.0476901,7.66914e-05,-0.000620274,7.7272e-07,0.156986,0.000252453,0.00204182,2.54364e-06,0.35839,-0.303785,51.4381,10000000,0
0.7,0.0567808,9.13104e-05,0.000738509,9.20016e-07,-0.0499743,8.03647e-05,-0.000649981,8.0973e-07,0.156986,0.000252453,0.00204181,2.54364e-06,0.361693,-0.318335,51.4718,10000000,0
0.75,0.0571235,9.18616e-05,0.000742966,9.25569e-07,-0.0511191,8.22058e-05,-0.00066487,8.28279e-07,0.156986,0.000252453,0.00204181,2.54364e-06,0.363876,-0.325628,52.0644,10000000,0
0.8,0.0572938,9.21354e-05,0.000745178,9.28326e-07,-0.0509348,8.19095e-05,-0.000662472,8.25293e-07,0.156986,0.000252453,0.0020418,2.54363e-06,0.364961,-0.324454,51.6088,10000000,0
0.1,0.040567,2.97798e-05,0.000530039,3.06743e-07,-0.0146295,1.07394e-05,-0.000191146,1.1062e-07,0.156535,0.000114911,0.00204525,1.18362e-06,0.259156,-0.0934584,103.973,20000000,0
0.15,0.0405215,2.96743e-05,0.000529433,3.05458e-07,-0.0154778,1.13346e-05,-0.000202225,1.16675e-07,0.156536,0.000114633,0.00204521,1.17999e-06,0.258864,-0.0988773,103.472,20000000,0
0.2,0.0410236,2.99875e-05,0.000535987,3.0854e-07,-0.0175062,1.27967e-05,-0.000228725,1.31665e-07,0.156536,0.000114425,0.00204519,1.17731e-06,0.262072,-0.111835,103.045,20000000,0
0.25,0.0421006,6.77028e-05,0.000547585,6.82161e-07,-0.0205796,3.30944e-05,-0.00026767,3.33453e-07,0.156986,0.000252452,0.00204185,2.54366e-06,0.26818,-0.131092,51.5485,10000000,0
0.3,0.0432231,6.95078e-05,0.000562183,7.00347e-07,-0.0241686,3.8866e-05,-0.00031435,3.91606e-07,0.156986,0.000252452,0.00204185,2.54366e-06,0.27533,-0.153954,51.6917,10000000,0
0.35,0.0442974,7.12355e-05,0.000576154,7.17753e-07,-0.0279604,4.49636e-05,-0.000363667,4.53044e-07,0.156986,0.000252453,0.00204184,2.54366e-06,0.282174,-0.178107,51.2252,10000000,0
0.4,0.0452503,7.27678e-05,0.000588546,7.33192e-07,-0.0317545,5.10651e-05,-0.000413014,5.1452e-07,0.156986,0.000252453,0.00204184,2.54365e-06,0.288244,-0.202276,51.8045,10000000,0
0.45,0.0461026,7.41385e-05,0.00059963,7.47001e-07,-0.0355277,5.71329e-05,-0.000462089,5.75657e-07,0.156986,0.000252453,0.00204183,2.54365e-06,0.293673,-0.226311,51.4035,10000000,0
0.5,0.0468965,7.54153e-05,0.000609956,7.59865e-07,-0.0393355,6.32562e-05,-0.000511613,6.37353e-07,0.156986,0.000252453,0.00204183,2.54365e-06,0.29873,-0.250566,51.2521,10000000,0
0.55,0.0476382,7.6608e-05,0.0006196,7.71881e-07,-0.043169,6.9421e-05,-0.000561473,6.99467e-07,0.156986,0.000252453,0.00204182,2.54364e-06,0.303455,-0.274986,51.2137,10000000,0
0.6,0.0482819,7.76432e-05,0.000627972,7.82311e-07,-0.0468633,7.53619e-05,-0.000609521,7.59325e-07,0.156986,0.000252453,0.00204182,2.54364e-06,0.307555,-0.298519,51.9226,10000000,0
0.65,0.0487615,7.84144e-05,0.000634208,7.9008e-07,-0.0501074,8.05789e-05,-0.000651714,8.11889e-07,0.156986,0.000252453,0.00204181,2.54364e-06,0.31061,-0.319184,51.6544,10000000,0
0.7,0.0490293,7.88451e-05,0.00063769,7.94419e-07,-0.0525065,8.44369e-05,-0.000682916,8.5076e-07,0.156986,0.000252453,0.00204181,2.54364e-06,0.312316,-0.334466,51.324,10000000,0
0.75,0.0490804,7.89274e-05,0.000638354,7.95247e-07,-0.0536897,8.63397e-05,-0.000698304,8.69931e-07,0.156986,0.000252453,0.00204181,2.54364e-06,0.312642,-0.342003,51.0074,10000000,0
0.8,0.048953,7.87224e-05,0.000636695,7.9318e-07,-0.0534537,8.59602e-05,-0.000695233,8.66106e-07,0.156986,0.000252453,0.0020418,2.54363e-06,0.31183,-0.3405,51.9275,10000000,0
0.1,0.0391118,2.87101e-05,0.000511025,2.95723e-07,-0.0136904,1.00494e-05,-0.000178875,1.03513e-07,0.156536,0.000114905,0.00204525,1.18356e-06,0.249859,-0.0874586,103.367,20000000,0
0.15,0.03904,2.85881e-05,0.000510077,2.94277e-07,-0.014452,1.05829e-05,-0.000188822,1.08936e-07,0.156536,0.000114628,0.00204522,1.17994e-06,0.2494,-0.0923239,103.632,20000000,0
0.2,0.0394951,2.88691e-05,0.000516017,2.97032e-07,-0.0163343,1.19396e-05,-0.000213412,1.22845e-07,0.156536,0.00011442,0.00204519,1.17726e-06,0.252307,-0.104348,103.253,20000000,0
0.25,0.0405086,6.51427e-05,0.000526879,6.56366e-07,-0.0192129,3.08966e-05,-0.000249894,3.11309e-07,0.156986,0.000252452,0.00204185,2.54366e-06,0.25804,-0.122386,51.3889,10000000,0
0.3,0.0415722,6.6853e-05,0.00054071,6.73598e-07,-0.0225907,3.63286e-05,-0.000293827,3.66039e-07,0.156986,0.000252452,0.00204185,2.54366e-06,0.264814,-0.143903,52.0488,10000000,0
0.35,0.0425935,6.84954e-05,0.000553992,6.90145e-07,-0.026171,4.20861e-05,-0.000340393,4.2405e-07,0.156986,0.000252453,0.00204184,2.54366e-06,0.27132,-0.166709,51.9033,10000000,0
0.4,0.0434995,6.99524e-05,0.000565774,7.04824e-07,-0.0297632,4.78628e-05,-0.000387114,4.82254e-07,0.156986,0.000252453,0.00204183,2.54365e-06,0.277091,-0.189591,51.5266,10000000,0
0.45,0.0443095,7.1255e-05,0.000576308,7.17947e-07,-0.0333447,5.36224e-05,-0.000433696,5.40285e-07,0.156986,0.000252453,0.00204183,2.54365e-06,0.282251,-0.212406,50.941,10000000,0
0.5,0.045066,7.24715e-05,0.000586146,7.30204e-07,-0.0369681,5.94491e-05,-0.000480822,5.98993e-07,0.156986,0.000252453,0.00204183,2.54365e-06,0.28707,-0.235486,51.4284,10000000,0
0.55,0.0457786,7.36175e-05,0.000595413,7.4175e-07,-0.0406245,6.53291e-05,-0.000528378,6.58238e-07,0.156986,0.000252453,0.00204182,2.54364e-06,0.291609,-0.258778,51.5591,10000000,0
0.6,0.0464068,7.46277e-05,0.000603583,7.51927e-07,-0.0441558,7.10079e-05,-0.000574306,7.15455e-07,0.156986,0.000252453,0.00204182,2.54364e-06,0.295611,-0.281272,51.7101,10000000,0
0.65,0.046887,7.54e-05,0.000609827,7.59707e-07,-0.0472631,7.60049e-05,-0.00061472,7.65803e-07,0.156986,0.000252453,0.00204181,2.54364e-06,0.298669,-0.301066,51.4191,10000000,0
0.7,0.047172,7.58583e-05,0.000613533,7.64325e-07,-0.0495664,7.97088e-05,-0.000644676,8.03121e-07,0.156986,0.000252453,0.00204181,2.54364e-06,0.300485,-0.315737,51.3414,10000000,0
0.75,0.0472532,7.59889e-05,0.000614588,7.6564e-07,-0.050707,8.1543e-05,-0.000659509,8.21601e-07,0.156986,0.000252453,0.00204181,2.54364e-06,0.301002,-0.323003,51.2867,10000000,0
0.8,0.0471629,7.58437e-05,0.000613413,7.64176e-07,-0.0504861,8.11878e-05,-0.000656635,8.18021e-07,0.156986,0.000252453,0.0020418,2.54363e-06,0.300427,-0.321596,50.9868,10000000,0
0.1,0.0390446,2.86624e-05,0.000510147,2.95233e-07,-0.0136825,1.00442e-05,-0.000178772,1.03459e-07,0.156535,0.000114912,0.00204525,1.18363e-06,0.24943,-0.0874084,102.502,20000000,0
0.15,0.0389826,2.85476e-05,0.000509326,2.9386e-07,-0.0144879,1.06097e-05,-0.000189292,1.09213e-07,0.156536,0.000114633,0.00204521,1.18e-06,0.249033,-0.0925536,103.037,20000000,0
0.2,0.0394425,2.88319e-05,0.000515329,2.9665e-07,-0.0163976,1.19864e-05,-0.000214239,1.23327e-07,0.156536,0.000114425,0.00204519,1.17732e-06,0.251971,-0.104753,103.244,20000000,0
0.25,0.0404544,6.50555e-05,0.000526174,6.55487e-07,-0.0192827,3.10088e-05,-0.000250802,3.1244e-07,0.156986,0.000252452,0.00204185,2.54366e-06,0.257694,-0.12283,52.0424,10000000,0
0.3,0.0415115,6.67554e-05,0.00053992,6.72614e-07,-0.0226468,3.64187e-05,-0.000294556,3.66948e-07,0.156986,0.000252452,0.00204185,2.54366e-06,0.264428,-0.14426,51.145,10000000,0
