z2,<dsig|c12>_U,err_<dsig|c12>_U,<ALL|c12>_U,err_<ALL|c12>_U,<dsig|c12>_L,err_<dsig|c12>_L,<ALL|c12>_L,err_<ALL|c12>_L,BU_o_AU,err_BU_o_AU,BL_o_AU,err_BL_o_AU,Collins_U,Collins_L,time[s],neval,fail
0.1,0.048767,3.57943e-05,0.000637186,3.68695e-07,-0.0141765,1.04053e-05,-0.000185229,1.07179e-07,0.156536,0.000114895,0.00204528,1.18346e-06,0.311539,-0.0905638,102.588,20000000,0
0.15,0.0485423,3.55438e-05,0.000634234,3.65878e-07,-0.0149536,1.09494e-05,-0.000195377,1.12709e-07,0.156536,0.000114619,0.00204524,1.17986e-06,0.310103,-0.095528,103.161,20000000,0
0.2,0.0489475,3.57764e-05,0.00063952,3.68103e-07,-0.0169308,1.23749e-05,-0.000221208,1.27326e-07,0.156536,0.000114414,0.00204521,1.17721e-06,0.312692,-0.108159,104.13,20000000,0
0.25,0.0500502,8.04867e-05,0.000650984,8.1097e-07,-0.0199733,3.21194e-05,-0.000259785,3.2363e-07,0.156986,0.000252452,0.00204186,2.54367e-06,0.318819,-0.12723,51.7346,10000000,0
0.3,0.0512326,8.23881e-05,0.00066636,8.30127e-07,-0.0235536,3.78769e-05,-0.000306351,3.81641e-07,0.156986,0.000252452,0.00204185,2.54366e-06,0.326351,-0.150036,51.7854,10000000,0
0.35,0.0523748,8.4225e-05,0.000681214,8.48633e-07,-0.0273532,4.39872e-05,-0.00035577,4.43206e-07,0.156986,0.000252452,0.00204184,2.54366e-06,0.333627,-0.17424,52.3605,10000000,0
0.4,0.053375,8.58333e-05,0.000694221,8.64837e-07,-0.0311686,5.01228e-05,-0.000405394,5.05026e-07,0.156986,0.000252453,0.00204184,2.54365e-06,0.339998,-0.198543,52.1083,10000000,0
0.45,0.0542536,8.72462e-05,0.000705646,8.79072e-07,-0.0349756,5.6245e-05,-0.000454908,5.66711e-07,0.156986,0.000252453,0.00204183,2.54365e-06,0.345594,-0.222794,51.7904,10000000,0
0.5,0.0550769,8.85704e-05,0.000716354,8.92412e-07,-0.0388312,6.24453e-05,-0.000505055,6.29183e-07,0.156986,0.000252453,0.00204183,2.54365e-06,0.350839,-0.247354,51.7537,10000000,0
0.55,0.0558864,8.98721e-05,0.000726881,9.05527e-07,-0.0427282,6.87121e-05,-0.00055574,6.92325e-07,0.156986,0.000252453,0.00204182,2.54365e-06,0.355996,-0.272178,52.001,10000000,0
0.6,0.056663,9.11209e-05,0.00073698,9.18109e-07,-0.0464996,7.4777e-05,-0.000604791,7.53432e-07,0.156986,0.000252453,0.00204182,2.54364e-06,0.360942,-0.296202,51.7415,10000000,0
0.65,0.0573402,9.221e-05,0.000745787,9.29081e-07,-0.0498277,8.0129e-05,-0.000648077,8.07357e-07,0.156986,0.000252453,0.00204182,2.54364e-06,0.365256,-0.317402,51.911,10000000,0
0.7,0.0578585,9.30435e-05,0.000752526,9.37478e-07,-0.0523069,8.41158e-05,-0.00068032,8.47526e-07,0.156986,0.000252453,0.00204181,2.54364e-06,0.368558,-0.333194,51.7569,10000000,0
0.75,0.0581838,9.35666e-05,0.000756755,9.42748e-07,-0.0535527,8.61193e-05,-0.000696523,8.67711e-07,0.156986,0.000252453,0.00204181,2.54364e-06,0.37063,-0.34113,51.7891,10000000,0
0.8,0.0583235,9.37914e-05,0.000758572,9.45011e-07,-0.0533496,8.57927e-05,-0.000693879,8.64419e-07,0.156986,0.000252453,0.0020418,2.54363e-06,0.37152,-0.339836,51.6859,10000000,0
0.1,0.0396215,2.90894e-05,0.000517684,2.99633e-07,-0.0138654,1.01797e-05,-0.000181161,1.04855e-07,0.156535,0.000114925,0.00204524,1.18378e-06,0.253116,-0.0885767,104.121,20000000,0
0.15,0.0395764,2.89856e-05,0.000517083,2.9837e-07,-0.0147795,1.08245e-05,-0.000193101,1.11425e-07,0.156535,0.000114646,0.0020452,1.18014e-06,0.252827,-0.0944167,103.771,20000000,0
0.2,0.0400507,2.92793e-05,0.000523274,3.01254e-07,-0.0167745,1.22631e-05,-0.000219164,1.26175e-07,0.156536,0.000114436,0.00204518,1.17743e-06,0.255857,-0.107161,103.549,20000000,0
0.25,0.0410727,6.60497e-05,0.000534215,6.65505e-07,-0.0197112,3.16979e-05,-0.000256375,3.19382e-07,0.156986,0.000252452,0.00204185,2.54366e-06,0.261632,-0.12556,52.1319,10000000,0
0.3,0.0421305,6.77508e-05,0.000547971,6.82643e-07,-0.0230884,3.71289e-05,-0.000300301,3.74104e-07,0.156986,0.000252452,0.00204185,2.54366e-06,0.26837,-0.147073,51.6281,10000000,0
0.35,0.0431362,6.93682e-05,0.000561051,6.98938e-07,-0.0266181,4.28052e-05,-0.000346209,4.31295e-07,0.156986,0.000252453,0.00204184,2.54366e-06,0.274777,-0.169557,51.7939,10000000,0
0.4,0.0440191,7.0788e-05,0.000572533,7.13243e-07,-0.0301178,4.8433e-05,-0.000391726,4.88e-07,0.156986,0.000252453,0.00204183,2.54365e-06,0.280401,-0.19185,51.7092,10000000,0
0.45,0.0447998,7.20435e-05,0.000582685,7.25892e-07,-0.0335682,5.39817e-05,-0.000436602,5.43906e-07,0.156986,0.000252453,0.00204183,2.54365e-06,0.285374,-0.213829,52.5007,10000000,0
0.5,0.0455224,7.32055e-05,0.000592083,7.37599e-07,-0.0370219,5.95357e-05,-0.000481522,5.99866e-07,0.156986,0.000252453,0.00204183,2.54365e-06,0.289977,-0.235829,50.9778,10000000,0
0.55,0.0462007,7.42963e-05,0.000600903,7.48588e-07,-0.0404739,6.5087e-05,-0.000526419,6.55798e-07,0.156986,0.000252453,0.00204182,2.54364e-06,0.294298,-0.257818,51.646,10000000,0
0.6,0.0468005,7.52609e-05,0.000608704,7.58307e-07,-0.04378,7.04035e-05,-0.000569418,7.09365e-07,0.156986,0.000252453,0.00204182,2.54364e-06,0.298119,-0.278878,51.2546,10000000,0
0.65,0.0472646,7.60072e-05,0.000614739,7.65826e-07,-0.0466677,7.50473e-05,-0.000606976,7.56154e-07,0.156986,0.000252453,0.00204181,2.54364e-06,0.301075,-0.297273,51.9609,10000000,0
0.7,0.0475503,7.64667e-05,0.000618454,7.70455e-07,-0.0487937,7.84662e-05,-0.000634625,7.90601e-07,0.156986,0.000252453,0.00204181,2.54364e-06,0.302895,-0.310815,51.5218,10000000,0
0.75,0.0476494,7.6626e-05,0.000619741,7.72059e-07,-0.0498388,8.01469e-05,-0.000648217,8.07534e-07,0.156986,0.000252453,0.00204181,2.54364e-06,0.303526,-0.317472,51.7486,10000000,0
0.8,0.0475906,7.65316e-05,0.000618976,7.71106e-07,-0.0496336,7.9817e-05,-0.000645548,8.04209e-07,0.156986,0.000252453,0.0020418,2.54363e-06,0.303152,-0.316166,51.6952,10000000,0
0.1,0.0408777,3.00085e-05,0.000534099,3.09099e-07,-0.0141709,1.04029e-05,-0.000185154,1.07154e-07,0.156535,0.000114913,0.00204526,1.18365e-06,0.261141,-0.0905286,103.788,20000000,0
0.15,0.0408081,2.98849e-05,0.000533178,3.07626e-07,-0.0150215,1.10006e-05,-0.000196263,1.13237e-07,0.156536,0.000114635,0.00204521,1.18002e-06,0.260696,-0.0959623,103.477,20000000,0
0.2,0.0412819,3.01769e-05,0.000539361,3.10489e-07,-0.0170116,1.24354e-05,-0.000222262,1.27947e-07,0.156536,0.000114427,0.00204519,1.17733e-06,0.263722,-0.108675,103.173,20000000,0
0.25,0.0423316,6.80742e-05,0.000550589,6.85903e-07,-0.0200058,3.21717e-05,-0.000260207,3.24157e-07,0.156986,0.000252452,0.00204185,2.54367e-06,0.269652,-0.127437,51.1082,10000000,0
0.3,0.0434279,6.98372e-05,0.000564847,7.03666e-07,-0.0234896,3.7774e-05,-0.000305518,3.80603e-07,0.156986,0.000252452,0.00204185,2.54366e-06,0.276635,-0.149628,51.8802,10000000,0
0.35,0.0444766,7.15236e-05,0.000578484,7.20656e-07,-0.0271601,4.36766e-05,-0.000353258,4.40076e-07,0.156986,0.000252453,0.00204184,2.54366e-06,0.283315,-0.173009,52.3562,10000000,0
0.4,0.045402,7.30119e-05,0.00059052,7.3565e-07,-0.0308242,4.9569e-05,-0.000400914,4.99446e-07,0.156986,0.000252453,0.00204184,2.54365e-06,0.28921,-0.19635,51.7271,10000000,0
0.45,0.0462247,7.43349e-05,0.000601219,7.4898e-07,-0.03446,5.54159e-05,-0.000448202,5.58357e-07,0.156986,0.000252453,0.00204183,2.54365e-06,0.294451,-0.21951,51.6824,10000000,0
0.5,0.0469903,7.5566e-05,0.000611174,7.61383e-07,-0.0381216,6.13042e-05,-0.000495825,6.17685e-07,0.156986,0.000252453,0.00204183,2.54365e-06,0.299327,-0.242834,51.5373,10000000,0
0.55,0.0477119,7.67265e-05,0.000620559,7.73075e-07,-0.0418016,6.72221e-05,-0.000543688,6.77311e-07,0.156986,0.000252453,0.00204182,2.54364e-06,0.303924,-0.266276,51.7355,10000000,0
0.6,0.0483518,7.77556e-05,0.000628881,7.83443e-07,-0.0453432,7.29173e-05,-0.000589749,7.34694e-07,0.156986,0.000252453,0.00204182,2.54364e-06,0.308,-0.288835,52.168,10000000,0
0.65,0.0488474,7.85526e-05,0.000635326,7.91473e-07,-0.0484499,7.79133e-05,-0.000630156,7.85032e-07,0.156986,0.000252453,0.00204181,2.54364e-06,0.311158,-0.308625,51.9808,10000000,0
0.7,0.0491518,7.9042e-05,0.000639283,7.96403e-07,-0.0507463,8.16063e-05,-0.000660023,8.2224e-07,0.156986,0.000252453,0.00204181,2.54364e-06,0.313096,-0.323254,52.2466,10000000,0
0.75,0.0492549,7.92078e-05,0.000640623,7.98073e-07,-0.0518805,8.34302e-05,-0.000674773,8.40616e-07,0.156986,0.000252453,0.00204181,2.54364e-06,0.313753,-0.330478,51.6725,10000000,0
0.8,0.0491872,7.90991e-05,0.000639742,7.96976e-07,-0.0516607,8.30767e-05,-0.000671912,8.37053e-07,0.156986,0.000252453,0.0020418,2.54363e-06,0.313322,-0.329078,51.8827,10000000,0
0.1,0.0438872,3.22119e-05,0.000573424,3.31793e-07,-0.0141311,1.03718e-05,-0.000184635,1.06833e-07,0.156536,0.000114893,0.00204527,1.18343e-06,0.280365,-0.0902739,103.653,20000000,0
0.15,0.0437356,3.20234e-05,0.000571429,3.29638e-07,-0.0148543,1.08764e-05,-0.00019408,1.11958e-07,0.156536,0.000114616,0.00204523,1.17982e-06,0.279396,-0.094894,103.07,20000000,0
0.2,0.0441678,3.22819e-05,0.000577069,3.32147e-07,-0.01677,1.2257e-05,-0.000219106,1.26112e-07,0.156536,0.000114411,0.00204521,1.17717e-06,0.282157,-0.107131,104.367,20000000,0
0.25,0.0452337,7.27412e-05,0.000588337,7.32927e-07,-0.0197536,3.17661e-05,-0.000256927,3.2007e-07,0.156986,0.000252452,0.00204186,2.54367e-06,0.288138,-0.12583,51.672,10000000,0
0.3,0.0463693,7.45674e-05,0.000603105,7.51326e-07,-0.0232869,3.74481e-05,-0.000302882,3.7732e-07,0.156986,0.000252452,0.00204185,2.54366e-06,0.295372,-0.148337,51.5854,10000000,0
0.35,0.0474669,7.63324e-05,0.000617378,7.69109e-07,-0.0270549,4.35076e-05,-0.00035189,4.38373e-07,0.156986,0.000252452,0.00204184,2.54366e-06,0.302363,-0.17234,51.3412,10000000,0
0.4,0.0484383,7.78946e-05,0.000630012,7.84848e-07,-0.0308547,4.96181e-05,-0.000401311,4.99941e-07,0.156986,0.000252453,0.00204184,2.54365e-06,0.308551,-0.196544,51.9862,10000000,0
0.45,0.0493034,7.92858e-05,0.000641262,7.98864e-07,-0.0346615,5.57399e-05,-0.000450823,5.61622e-07,0.156986,0.000252453,0.00204183,2.54365e-06,0.314062,-0.220794,51.6605,10000000,0
0.5,0.0501154,8.05917e-05,0.000651822,8.12021e-07,-0.038531,6.19625e-05,-0.00050115,6.24318e-07,0.156986,0.000252453,0.00204183,2.54365e-06,0.319235,-0.245442,51.6549,10000000,0
0.55,0.0508968,8.18482e-05,0.000661983,8.2468e-07,-0.0424536,6.82705e-05,-0.000552168,6.87875e-07,0.156986,0.000252453,0.00204182,2.54365e-06,0.324212,-0.270429,52.1339,10000000,0
0.6,0.0516134,8.30005e-05,0.000671302,8.3629e-07,-0.0462582,7.43889e-05,-0.000601652,7.49521e-07,0.156986,0.000252453,0.00204182,2.54364e-06,0.328776,-0.294664,52.1909,10000000,0
0.65,0.0521967,8.39386e-05,0.000678888,8.45741e-07,-0.0496205,7.97957e-05,-0.00064538,8.03998e-07,0.156986,0.000252453,0.00204182,2.54364e-06,0.332492,-0.316082,51.8066,10000000,0
0.7,0.0525913,8.45733e-05,0.000684019,8.52134e-07,-0.0521251,8.38235e-05,-0.000677956,8.4458e-07,0.156986,0.000252453,0.00204181,2.54364e-06,0.335006,-0.332036,51.4749,10000000,0
0.75,0.0527768,8.48715e-05,0.00068643,8.55138e-07,-0.0533776,8.58377e-05,-0.000694244,8.64873e-07,0.156986,0.000252453,0.00204181,2.54364e-06,0.336187,-0.340014,51.6366,10000000,0
0.8,0.052776,8.48704e-05,0.000686419,8.55126e-07,-0.0531542,8.54785e-05,-0.000691338,8.61253e-07,0.156986,0.000252453,0.0020418,2.54363e-06,0.336183,-0.338592,51.5523,10000000,0
0.1,0.0392201,2.88003e-05,0.000512437,2.96657e-07,-0.0140429,1.0312e-05,-0.00018348,1.06219e-07,0.156535,0.000114947,0.00204523,1.18401e-06,0.250552,-0.0897111,104.363,20000000,0
0.15,0.0392194,2.87291e-05,0.000512418,2.95732e-07,-0.0151165,1.10731e-05,-0.000197503,1.13985e-07,0.156535,0.000114665,0.00204519,1.18034e-06,0.250547,-0.0965693,103.547,20000000,0
0.2,0.039718,2.90398e-05,0.000518926,2.98792e-07,-0.017212,1.25845e-05,-0.000224879,1.29483e-07,0.156535,0.000114451,0.00204517,1.17759e-06,0.253732,-0.109956,103.734,20000000,0
0.25,0.0407378,6.55113e-05,0.00052986,6.6008e-07,-0.0201801,3.24519e-05,-0.000262473,3.2698e-07,0.156986,0.000252452,0.00204185,2.54366e-06,0.2595,-0.128547,51.5147,10000000,0
0.3,0.0417755,6.718e-05,0.000543355,6.76892e-07,-0.0235225,3.78269e-05,-0.000305946,3.81136e-07,0.156986,0.000252452,0.00204185,2.54366e-06,0.26611,-0.149838,51.7788,10000000,0
0.35,0.0427513,6.87492e-05,0.000556044,6.92701e-07,-0.026965,4.33629e-05,-0.00035072,4.36915e-07,0.156986,0.000252453,0.00204184,2.54366e-06,0.272325,-0.171767,51.899,10000000,0
0.4,0.0435999,7.01139e-05,0.000567081,7.06451e-07,-0.0303364,4.87846e-05,-0.000394569,4.91542e-07,0.156986,0.000252453,0.00204183,2.54365e-06,0.277731,-0.193243,51.8015,10000000,0
0.45,0.0443433,7.13093e-05,0.000576747,7.18494e-07,-0.0336223,5.40688e-05,-0.000437307,5.44783e-07,0.156986,0.000252453,0.00204183,2.54365e-06,0.282466,-0.214174,51.3901,10000000,0
0.5,0.0450248,7.24053e-05,0.000585611,7.29537e-07,-0.0368757,5.93006e-05,-0.000479621,5.97498e-07,0.156986,0.000252453,0.00204183,2.54365e-06,0.286807,-0.234898,51.5271,10000000,0
0.55,0.0456593,7.34256e-05,0.000593862,7.39816e-07,-0.0400957,6.44788e-05,-0.0005215,6.4967e-07,0.156986,0.000252453,0.00204182,2.54364e-06,0.290849,-0.255409,51.6764,10000000,0
0.6,0.0462169,7.43224e-05,0.000601113,7.48851e-07,-0.0431534,6.93958e-05,-0.000561268,6.99212e-07,0.156986,0.000252453,0.00204182,2.54364e-06,0.294401,-0.274886,51.6217,10000000,0
0.65,0.0466465,7.50132e-05,0.000606699,7.55811e-07,-0.0458041,7.36586e-05,-0.000595744,7.42162e-07,0.156986,0.000252453,0.00204181,2.54364e-06,0.297137,-0.291772,51.9031,10000000,0
0.7,0.0469109,7.54385e-05,0.000610138,7.60094e-07,-0.0477425,7.67757e-05,-0.000620953,7.73568e-07,0.156986,0.000252453,0.00204181,2.54364e-06,0.298822,-0.304119,52.093,10000000,0
0.75,0.0470043,7.55886e-05,0.000611351,7.61606e-07,-0.0486888,7.82976e-05,-0.000633261,7.88901e-07,0.156986,0.000252453,0.00204181,2.54364e-06,0.299416,-0.310147,52.2948,10000000,0
0.8,0.0469542,7.55081e-05,0.000610698,7.60794e-07,-0.0485017,7.79967e-05,-0.000630825,7.85868e-07,0.156986,0.000252453,0.0020418,2.54363e-06,0.299097,-0.308955,51.6116,10000000,0
0.1,0.0335663,2.46476e-05,0.000438564,2.53881e-07,-0.0141889,1.04188e-05,-0.000185386,1.07318e-07,0.156535,0.000114943,0.00204522,1.18396e-06,0.214434,-0.0906437,103.738,20000000,0
0.15,0.033688,2.46762e-05,0.000440146,2.5401e-07,-0.0151941,1.11295e-05,-0.000198516,1.14564e-07,0.156535,0.000114661,0.00204519,1.18029e-06,0.215211,-0.097065,103.18,20000000,0
0.2,0.034263,2.50504e-05,0.000447654,2.57742e-07,-0.0172436,1.26072e-05,-0.000225292,1.29714e-07,0.156535,0.000114446,0.00204517,1.17753e-06,0.218884,-0.110158,102.813,20000000,0
0.25,0.0352842,5.67412e-05,0.000458926,5.71713e-07,-0.0201967,3.24787e-05,-0.00026269,3.27249e-07,0.156986,0.000252452,0.00204185,2.54366e-06,0.22476,-0.128653,51.9065,10000000,0
0.3,0.0363054,5.83833e-05,0.000472206,5.88258e-07,-0.0235545,3.78785e-05,-0.000306362,3.81656e-07,0.156986,0.000252452,0.00204184,2.54366e-06,0.231265,-0.150042,51.9334,10000000,0
0.35,0.0372621,5.9922e-05,0.000484649,6.0376e-07,-0.0270383,4.34809e-05,-0.000351674,4.38103e-07,0.156986,0.000252453,0.00204184,2.54365e-06,0.237359,-0.172234,51.6451,10000000,0
0.4,0.0381084,6.12829e-05,0.000495655,6.17472e-07,-0.0304721,4.90029e-05,-0.000396334,4.93741e-07,0.156986,0.000252453,0.00204183,2.54365e-06,0.24275,-0.194107,51.4183,10000000,0
0.45,0.038866,6.25013e-05,0.000505508,6.29747e-07,-0.0338389,5.44171e-05,-0.000440123,5.48293e-07,0.156986,0.000252453,0.00204183,2.54365e-06,0.247576,-0.215554,51.479,10000000,0
0.5,0.03956,6.36173e-05,0.000514533,6.40991e-07,-0.0371903,5.98065e-05,-0.000483711,6.02594e-07,0.156986,0.000252453,0.00204182,2.54365e-06,0.251997,-0.236902,51.6754,10000000,0
0.55,0.0401762,6.46082e-05,0.000522546,6.50973e-07,-0.0405214,6.51633e-05,-0.000527036,6.56567e-07,0.156986,0.000252453,0.00204182,2.54364e-06,0.255922,-0.258121,51.8484,10000000,0
0.6,0.04066,6.53863e-05,0.000528838,6.58813e-07,-0.043694,7.02653e-05,-0.0005683,7.07973e-07,0.156986,0.000252453,0.00204182,2.54364e-06,0.259004,-0.27833,51.8131,10000000,0
0.65,0.040956,6.58623e-05,0.000532687,6.63608e-07,-0.046449,7.46957e-05,-0.000604131,7.52611e-07,0.156986,0.000252453,0.00204181,2.54364e-06,0.260889,-0.29588,52.0879,10000000,0
0.7,0.0410332,6.59864e-05,0.00053369,6.64858e-07,-0.0484617,7.79324e-05,-0.000630308,7.85222e-07,0.156986,0.000252453,0.00204181,2.54364e-06,0.261381,-0.308701,51.9829,10000000,0
0.75,0.0409078,6.57848e-05,0.000532058,6.62826e-07,-0.0494337,7.94955e-05,-0.000642949,8.00971e-07,0.156986,0.000252453,0.00204181,2.54363e-06,0.260582,-0.314892,51.6453,10000000,0
0.8,0.0406338,6.53441e-05,0.000528493,6.58385e-07,-0.0492117,7.91385e-05,-0.00064006,7.97373e-07,0.156986,0.000252453,0.0020418,2.54363e-06,0.258837,-0.313478,51.9931,10000000,0
0.1,0.0365562,2.68441e-05,0.00047763,2.76507e-07,-0.0138637,1.01805e-05,-0.000181138,1.04864e-07,0.156535,0.000114947,0.00204522,1.18401e-06,0.233534,-0.0885664,103.985,20000000,0
0.15,0.0365994,2.68098e-05,0.000478185,2.75975e-07,-0.0149071,1.09198e-05,-0.000194767,1.12406e-07,0.156535,0.000114665,0.00204519,1.18034e-06,0.23381,-0.0952318,103.13,20000000,0
0.2,0.0371151,2.71366e-05,0.000484917,2.79209e-07,-0.016958,1.23988e-05,-0.000221561,1.27572e-07,0.156535,0.00011445,0.00204517,1.17758e-06,0.237104,-0.108334,104.319,20000000,0
0.25,0.0381148,6.1293e-05,0.000495742,6.17577e-07,-0.019872,3.19565e-05,-0.000258466,3.21988e-07,0.156986,0.000252452,0.00204185,2.54366e-06,0.242791,-0.126584,51.678,10000000,0
0.3,0.0391245,6.29168e-05,0.000508874,6.33937e-07,-0.0231593,3.72429e-05,-0.000301222,3.75251e-07,0.156986,0.000252452,0.00204185,2.54366e-06,0.249222,-0.147524,51.7604,10000000,0
0.35,0.0400718,6.44403e-05,0.000521194,6.49286e-07,-0.0265499,4.26955e-05,-0.000345321,4.3019e-07,0.156986,0.000252453,0.00204184,2.54366e-06,0.255257,-0.169123,51.7389,10000000,0
0.4,0.0408997,6.57716e-05,0.00053196,6.62698e-07,-0.0298749,4.80424e-05,-0.000388567,4.84064e-07,0.156986,0.000252453,0.00204183,2.54365e-06,0.26053,-0.190303,51.8804,10000000,0
0.45,0.0416294,6.69451e-05,0.00054145,6.74522e-07,-0.0331195,5.32602e-05,-0.000430767,5.36636e-07,0.156986,0.000252453,0.00204183,2.54365e-06,0.265179,-0.210971,51.6227,10000000,0
0.5,0.0422977,6.80198e-05,0.000550141,6.85349e-07,-0.0363354,5.84317e-05,-0.000472592,5.88742e-07,0.156986,0.000252453,0.00204182,2.54365e-06,0.269436,-0.231456,52.0443,10000000,0
0.55,0.0429096,6.90038e-05,0.000558098,6.95263e-07,-0.0395206,6.35538e-05,-0.000514019,6.40351e-07,0.156986,0.000252453,0.00204182,2.54364e-06,0.273333,-0.251745,51.6257,10000000,0
0.6,0.0434282,6.98378e-05,0.000564842,7.03666e-07,-0.0425463,6.84196e-05,-0.000553372,6.89376e-07,0.156986,0.000252453,0.00204182,2.54364e-06,0.276637,-0.271019,51.3411,10000000,0
0.65,0.0438026,7.04399e-05,0.00056971,7.09731e-07,-0.0451694,7.26379e-05,-0.000587488,7.31877e-07,0.156986,0.000252453,0.00204181,2.54364e-06,0.279022,-0.287728,50.8468,10000000,0
0.7,0.0439988,7.07554e-05,0.000572261,7.12909e-07,-0.0470857,7.57196e-05,-0.000612411,7.62927e-07,0.156986,0.000252453,0.00204181,2.54364e-06,0.280272,-0.299935,51.7916,10000000,0
0.75,0.0440184,7.0787e-05,0.000572516,7.13227e-07,-0.0480171,7.72174e-05,-0.000624524,7.78017e-07,0.156986,0.000252453,0.00204181,2.54363e-06,0.280397,-0.305868,51.4291,10000000,0
0.8,0.0438971,7.0592e-05,0.000570937,7.11261e-07,-0.0478225,7.69045e-05,-0.000621992,7.74864e-07,0.156986,0.000252453,0.0020418,2.54363e-06,0.279624,-0.304629,51.6115,10000000,0
0.1,0.0301172,2.21214e-05,0.000393496,2.27862e-07,-0.0141799,1.04153e-05,-0.000185267,1.07283e-07,0.156534,0.000114976,0.00204519,1.18431e-06,0.192401,-0.0905867,103.479,20000000,0
0.15,0.0303724,2.22531e-05,0.000396823,2.2907e-07,-0.0153858,1.12728e-05,-0.000201019,1.1604e-07,0.156534,0.000114689,0.00204516,1.18059e-06,0.19403,-0.0982901,103.913,20000000,0
0.2,0.0310127,2.26788e-05,0.000405185,2.33341e-07,-0.0175115,1.28057e-05,-0.00022879,1.31758e-07,0.156535,0.00011447,0.00204515,1.17778e-06,0.19812,-0.11187,102.986,20000000,0
0.25,0.0320096,5.14753e-05,0.000416335,5.18655e-07,-0.020412,3.2825e-05,-0.00026549,3.30738e-07,0.156986,0.000252452,0.00204185,2.54366e-06,0.203901,-0.130024,51.8958,10000000,0
0.3,0.0329642,5.30104e-05,0.000428749,5.34121e-07,-0.0236108,3.79689e-05,-0.000307093,3.82567e-07,0.156986,0.000252452,0.00204184,2.54366e-06,0.209982,-0.1504,51.2425,10000000,0
